1586799902.00
64.000000
-0.00
-0.00
-0.00
-0.00
-0.00
-0.00
-0.00
-0.00
-0.00
-0.00
0.00
0.01
0.01
-0.00
-0.03
-0.05
-0.05
0.00
0.13
0.36
0.66
1.01
1.37
1.72
2.06
2.40
2.79
3.24
3.80
4.42
5.06
5.66
6.20
6.68
7.15
7.68
8.31
9.14
10.09
11.04
11.88
12.56
13.14
13.76
14.65
15.96
17.91
20.32
22.90
25.38
27.58
29.57
31.68
34.32
37.81
42.54
48.15
54.10
59.83
64.97
69.58
74.14
79.34
85.71
93.76
103.00
112.62
121.73
129.77
136.75
143.30
150.75
157.77
166.64
177.95
191.79
206.97
220.57
228.25
225.36
208.53
176.87
132.76
80.05
23.07
-34.94
-92.44
-149.16
-205.23
-260.37
-313.74
-363.87
-409.83
-450.91
-486.50
-515.74
-537.23
-549.22
-549.96
-538.37
-514.21
-478.67
-433.88
-382.45
-327.02
-269.84
-212.63
-156.66
-102.95
-52.37
-5.90
35.58
71.43
101.35
125.50
144.38
158.69
169.15
176.37
180.75
182.57
182.07
179.51
175.23
169.65
163.18
156.15
148.81
141.30
133.69
126.02
118.33
110.69
103.16
95.80
88.68
81.83
75.25
68.95
62.95
57.25
51.86
46.78
42.03
37.59
33.45
29.61
26.07
22.81
19.83
17.11
14.67
12.48
10.54
8.83
7.35
6.07
4.97
4.05
3.27
2.62
2.09
1.65
1.30
1.01
0.79
0.61
0.48
0.37
0.29
0.24
0.20
0.18
0.17
0.18
0.19
0.21
0.24
0.28
0.31
0.35
0.40
0.44
0.49
0.54
0.59
0.64
0.69
0.75
0.82
0.89
0.96
1.05
1.14
1.24
1.36
1.49
1.63
1.80
1.98
2.18
2.40
2.65
2.93
3.23
3.56
3.93
4.33
4.76
5.23
5.74
6.28
6.87
7.50
8.17
8.89
9.65
10.46
11.31
12.21
13.16
14.15
15.21
16.33
17.52
18.76
20.05
21.34
22.57
23.68
24.55
25.06
25.09
24.53
23.28
21.31
18.60
15.24
11.28
6.92
2.35
-2.20
-6.52
-10.41
-13.69
-16.28
-18.14
-19.30
-19.81
-19.76
-19.25
-18.36
-17.17
-15.76
-14.22
-12.61
-11.02
-9.45
-7.96
-6.51
-5.08
-3.60
-2.02
-0.37
1.33
3.03
4.74
6.37
7.95
9.58
11.37
13.36
15.50
17.65
19.69
21.59
23.18
24.56
25.99
27.76
29.99
32.57
35.20
37.53
39.44
40.56
41.07
41.44
42.16
43.46
45.14
46.65
47.33
46.81
44.49
40.52
35.41
29.64
23.30
15.73
5.42
-10.10
-29.05
-51.76
-78.43
-108.48
-140.03
-169.71
-193.28
-206.86
-208.27
-197.95
-179.51
-157.66
-136.60
-118.86
-104.82
-93.32
-82.73
-71.77
-59.80
-47.26
-34.55
-21.88
-9.39
2.72
14.03
23.92
31.77
37.32
40.48
41.79
42.19
42.56
43.46
44.87
46.34
47.33
47.50
46.81
45.59
44.32
43.31
42.60
41.91
40.92
39.40
37.36
34.95
32.38
29.80
27.19
24.44
21.50
18.40
15.35
12.60
10.30
8.39
6.58
4.53
1.91
-1.38
-5.26
-9.47
-13.60
-17.13
-19.48
-20.13
-18.73
-15.33
-10.36
-4.54
1.30
6.50
10.67
13.73
15.78
17.00
17.56
17.62
17.35
16.89
16.37
15.85
15.40
15.08
14.96
15.09
15.45
15.93
16.30
16.37
16.02
15.28
14.28
13.18
12.02
10.71
9.05
6.92
4.38
1.72
-0.64
-2.40
-3.52
-4.31
-5.25
-6.79
-9.14
-12.17
-15.49
-18.62
-21.06
-22.44
-22.51
-21.09
-18.19
-13.99
-8.95
-3.65
1.31
5.53
8.85
11.36
13.23
14.60
15.48
15.80
15.54
14.83
13.93
13.18
12.86
13.06
13.70
14.56
15.42
16.06
16.34
16.16
15.45
14.22
12.52
10.49
8.31
6.10
3.95
1.85
-0.19
-2.17
-3.99
-5.59
-6.94
-8.11
-9.33
-10.89
-13.06
-15.98
-19.44
-22.86
-25.46
-26.45
-25.35
-22.20
-17.58
-12.27
-7.07
-2.45
1.45
4.64
7.19
9.04
10.07
10.29
9.90
9.31
8.97
9.14
9.80
10.64
11.30
11.59
11.59
11.57
11.75
12.13
12.43
12.26
11.40
9.97
8.36
7.07
6.40
6.29
6.38
6.17
5.29
3.56
1.10
-1.80
-4.82
-7.67
-10.20
-12.34
-14.21
-15.91
-17.60
-19.44
-21.55
-23.93
-26.43
-28.66
-30.07
-30.05
-28.16
-24.38
-19.10
-13.08
-7.15
-2.00
2.00
4.85
6.77
8.10
9.13
10.06
10.95
11.78
12.47
12.94
13.19
13.31
13.38
13.45
13.57
13.69
13.76
13.74
13.57
13.22
12.59
11.62
10.21
8.43
6.41
4.43
2.78
1.62
0.91
0.41
-0.21
-1.25
-2.83
-4.80
-6.85
-8.60
-9.85
-10.62
-11.21
-12.04
-13.52
-15.84
-18.92
-22.36
-25.53
-27.77
-28.52
-27.47
-24.67
-20.52
-15.64
-10.69
-6.24
-2.58
0.26
2.46
4.28
5.93
7.51
9.05
10.52
11.86
13.02
13.97
14.66
15.10
15.34
15.48
15.62
15.75
15.72
15.32
14.37
12.83
10.88
8.86
7.10
5.80
4.91
4.21
3.47
2.58
1.64
0.86
0.40
0.23
0.06
-0.51
-1.75
-3.69
-6.00
-8.19
-9.86
-10.90
-11.55
-12.33
-13.78
-16.22
-19.60
-23.49
-27.20
-29.86
-30.82
-29.67
-26.48
-21.68
-15.99
-10.18
-4.89
-0.56
2.69
4.95
6.44
7.44
8.18
8.79
9.31
9.75
10.08
10.32
10.50
10.62
10.70
10.73
10.76
10.83
10.95
11.08
11.05
10.66
9.75
8.33
6.55
4.69
3.00
1.59
0.45
-0.50
-1.36
-2.16
-2.89
-3.54
-4.17
-4.88
-5.78
-6.89
-8.13
-9.35
-10.47
-11.58
-12.96
-14.98
-17.79
-21.21
-24.54
-26.85
-27.29
-25.48
-21.69
-16.74
-11.65
-7.24
-3.88
-1.50
0.28
1.84
3.39
4.89
6.15
7.03
7.51
7.76
8.01
8.50
9.25
10.13
10.89
11.36
11.49
11.42
11.27
11.06
10.66
9.88
8.60
6.89
4.95
3.00
1.17
-0.54
-2.19
-3.75
-5.11
-6.11
-6.67
-6.90
-7.12
-7.72
-9.00
-11.12
-13.95
-17.15
-20.12
-22.17
-22.66
-21.22
-17.89
-13.19
-7.91
-2.93
1.16
4.16
6.29
7.92
9.35
10.59
11.50
11.90
11.85
11.60
11.54
11.90
12.65
13.50
14.15
14.46
14.53
14.61
14.81
15.04
14.98
14.35
13.06
11.28
9.34
7.49
5.77
4.03
2.04
-0.26
-2.74
-5.06
-6.92
-8.16
-8.92
-9.55
-10.51
-12.13
-14.59
-17.77
-21.31
-24.73
-27.51
-29.12
-29.16
-27.37
-23.71
-18.47
-12.26
-5.98
-0.53
3.39
5.59
6.41
6.54
6.72
7.42
8.70
10.18
11.40
11.96
11.85
11.46
11.36
12.04
13.64
15.87
18.07
19.58
19.96
19.16
17.52
15.48
13.45
11.54
9.72
7.80
5.68
3.40
1.06
-1.19
-3.30
-5.32
-7.43
-9.75
-12.39
-15.29
-18.35
-21.42
-24.41
-27.25
-29.79
-31.65
-32.30
-31.15
-27.91
-22.75
-16.37
-9.77
-3.88
0.72
3.98
6.23
7.98
9.69
11.51
13.37
15.05
16.30
16.98
17.07
16.71
16.16
15.68
15.44
15.45
15.54
15.47
15.09
14.39
13.52
12.65
11.88
11.12
10.24
9.14
7.87
6.64
5.64
4.87
4.11
2.98
1.19
-1.28
-4.18
-7.16
-9.92
-12.43
-14.91
-17.66
-20.83
-24.28
-27.49
-29.72
-30.28
-28.75
-25.21
-20.14
-14.34
-8.60
-3.54
0.58
3.85
6.51
8.79
10.76
12.33
13.39
13.92
14.08
14.11
14.27
14.61
15.08
15.50
15.73
15.79
15.80
15.88
16.07
16.26
16.22
15.71
14.61
12.95
10.94
8.91
7.14
5.82
4.91
4.18
3.33
2.11
0.46
-1.54
-3.71
-5.86
-7.84
-9.62
-11.25
-12.88
-14.76
-17.13
-20.08
-23.43
-26.64
-28.95
-29.63
-28.25
-24.86
-19.94
-14.26
-8.58
-3.44
0.83
4.18
6.64
8.30
9.31
9.88
10.28
10.77
11.49
12.40
13.30
13.97
14.34
14.56
14.91
15.62
16.66
17.74
18.45
18.47
17.76
16.50
15.00
13.45
11.88
10.20
8.32
6.34
4.46
2.91
1.75
0.82
-0.16
-1.42
-2.99
-4.66
-6.14
-7.28
-8.24
-9.49
-11.58
-14.82
-19.02
-23.45
-27.06
-28.85
-28.26
-25.34
-20.67
-15.13
-9.59
-4.67
-0.63
2.57
5.08
7.09
8.69
9.87
10.53
10.56
9.95
8.71
6.95
4.87
2.73
0.85
-0.50
-1.30
-1.84
-2.71
-4.59
-7.94
-12.78
-18.69
-24.98
-31.07
-36.61
-41.55
-45.93
-49.80
-53.13
-55.94
-58.39
-60.89
-63.89
-67.72
-72.36
-77.50
-82.60
-87.01
-89.97
-90.48
-87.24
-78.87
-64.36
-43.72
-18.26
9.53
36.61
60.23
78.54
90.92
97.60
99.42
97.41
92.67
86.37
79.64
73.46
68.33
64.20
60.49
56.44
51.52
45.72
39.63
34.29
30.68
29.32
29.99
31.71
33.23
33.57
32.48
30.53
28.71
27.84
28.02
28.53
28.17
25.90
21.34
15.00
8.08
1.90
-2.61
-5.24
-6.25
-6.15
-5.23
-3.50
-0.84
2.75
6.95
11.12
14.46
16.25
15.91
13.05
7.43
-0.92
-11.48
-23.12
-34.18
-42.84
-47.72
-48.23
-44.75
-38.36
-30.46
-22.41
-15.40
-10.37
-8.06
-8.95
-13.13
-20.14
-28.80
-37.24
-43.03
-43.56
-36.63
-21.22
1.99
30.23
59.05
83.24
98.14
100.90
91.02
70.42
42.65
12.01
-17.34
-41.95
-59.62
-69.59
-72.80
-71.61
-69.13
-68.20
-70.32
-75.23
-81.22
-86.30
-89.35
-90.69
-91.62
-93.24
-95.42
-96.53
-94.38
-87.77
-77.73
-67.63
-61.80
-63.58
-73.55
-89.09
-105.30
-116.78
-119.28
-110.31
-89.14
-56.41
-14.23
33.54
81.23
122.18
150.52
163.15
160.76
147.47
129.09
111.10
97.31
89.45
87.61
90.68
96.78
103.51
108.36
109.35
105.64
97.60
86.41
73.29
59.10
44.32
29.36
14.88
1.74
-9.45
-18.70
-26.75
-34.60
-43.08
-52.33
-61.84
-70.56
-77.36
-81.29
-81.84
-79.00
-73.24
-65.39
-56.54
-47.85
-40.45
-35.33
-33.19
-34.29
-38.45
-44.93
-52.72
-60.72
-68.08
-74.28
-79.15
-82.73
-85.20
-86.88
-88.22
-89.73
-91.76
-94.37
-97.34
-100.38
-103.40
-106.56
-110.13
-114.00
-117.49
-119.22
-117.54
-111.03
-99.08
-82.10
-61.53
-39.52
-18.46
-0.43
13.23
22.28
27.52
30.48
32.89
36.16
41.06
47.89
56.53
66.69
78.08
90.32
102.92
115.10
125.78
133.75
138.09
138.44
135.41
130.36
124.96
120.58
117.76
116.26
115.29
114.10
112.33
110.02
107.48
104.93
102.39
99.69
96.63
93.11
89.13
84.71
79.91
74.77
69.33
63.58
57.47
50.91
43.81
36.24
28.54
21.27
15.14
10.63
7.92
6.66
6.24
5.96
5.42
4.59
3.80
3.44
3.68
4.37
5.02
5.17
4.61
3.56
2.63
2.48
3.58
5.94
9.17
12.62
15.60
17.57
18.31
17.86
16.58
14.96
13.58
12.91
13.11
13.98
15.02
15.54
14.94
12.87
9.39
4.91
0.08
-4.41
-8.05
-10.63
-12.25
-13.35
-14.41
-15.87
-17.88
-20.21
-22.35
-23.76
-24.11
-23.56
-22.71
-22.30
-22.89
-24.52
-26.66
-28.52
-29.44
-29.18
-27.93
-26.14
-24.10
-21.86
-19.20
-15.89
-11.92
-7.66
-3.74
-0.92
0.28
-0.25
-2.17
-4.89
-7.78
-10.47
-12.95
-15.46
-18.25
-21.35
-24.45
-27.18
-29.32
-31.06
-32.97
-35.73
-39.86
-45.49
-52.36
-60.01
-68.05
-76.15
-84.13
-91.84
-99.09
-105.76
-111.79
-117.28
-122.29
-126.66
-129.91
-131.23
-129.83
-125.30
-117.94
-108.74
-99.14
-90.63
-84.37
-81.20
-81.68
-86.20
-94.81
-106.91
-120.81
-133.79
-142.48
-143.80
-135.87
-118.54
-93.34
-62.90
-30.12
2.43
32.78
59.52
81.66
98.52
109.83
115.78
117.28
115.94
113.95
113.73
117.34
125.80
138.72
154.32
169.87
182.60
190.44
192.59
189.58
182.92
174.62
166.64
160.74
158.16
159.55
164.86
173.24
183.09
192.39
199.16
202.04
200.69
195.81
188.92
181.65
175.17
169.77
164.81
159.15
151.52
141.10
127.82
112.47
96.57
82.02
70.46
62.72
58.42
56.04
53.53
49.08
41.93
32.48
21.95
11.71
2.65
-5.07
-11.82
-18.08
-24.14
-30.06
-35.73
-41.13
-46.34
-51.44
-56.32
-60.44
-62.91
-62.79
-59.43
-52.85
-43.85
-33.76
-24.07
-15.87
-9.54
-4.83
-1.15
1.91
4.34
5.77
6.01
5.51
5.40
7.03
11.05
16.76
22.09
24.35
21.30
12.18
-2.07
-19.25
-36.74
-52.27
-64.16
-71.41
-73.61
-71.08
-64.97
-57.24
-50.23
-45.90
-45.27
-48.16
-53.51
-59.92
-66.13
-71.23
-74.69
-76.42
-76.92
-77.22
-78.48
-81.00
-83.34
-82.10
-73.00
-52.85
-21.38
18.11
59.74
97.34
126.59
146.13
157.00
161.14
160.05
154.39
144.47
131.28
116.94
104.11
94.87
89.39
85.62
79.96
68.86
50.57
26.21
-0.44
-24.24
-40.58
-47.00
-43.86
-33.98
-21.46
-10.25
-3.05
-0.82
-2.93
-7.76
-13.46
-18.64
-22.66
-25.64
-28.09
-30.57
-33.36
-36.45
-39.60
-42.55
-45.20
-47.47
-49.28
-50.47
-50.76
-49.96
-48.13
-45.71
-43.44
-42.10
-42.18
-43.59
-45.73
-47.64
-48.45
-47.73
-45.66
-42.93
-40.48
-39.08
-39.13
-40.50
-42.67
-45.02
-46.95
-48.20
-48.77
-48.85
-48.67
-48.37
-47.90
-47.08
-45.75
-43.81
-41.35
-38.61
-35.97
-33.89
-32.68
-32.52
-33.32
-34.77
-36.42
-37.86
-38.84
-39.30
-39.32
-38.99
-38.35
-37.39
-36.07
-34.47
-32.78
-31.21
-29.90
-28.88
-27.99
-27.02
-25.78
-24.21
-22.29
-20.09
-17.70
-15.20
-12.72
-10.36
-8.27
-6.58
-5.41
-4.85
-4.94
-5.60
-6.52
-7.27
-7.38
-6.59
-4.92
-2.65
-0.16
2.29
4.64
6.96
9.32
11.67
13.79
15.45
16.58
17.23
17.57
17.71
17.57
16.92
15.49
13.09
9.77
5.77
1.50
-2.60
-6.13
-8.78
-10.44
-11.14
-11.06
-10.40
-9.38
-8.16
-6.90
-5.77
-4.94
-4.58
-4.72
-5.25
-5.95
-6.56
-6.95
-7.09
-7.07
-7.00
-6.91
-6.79
-6.62
-6.45
-6.38
-6.47
-6.74
-7.11
-7.48
-7.78
-8.08
-8.44
-8.94
-9.56
-10.22
-10.76
-11.12
-11.24
-11.10
-10.66
-9.85
-8.58
-6.86
-4.78
-2.60
-0.65
0.79
1.59
1.83
1.72
1.52
1.40
1.40
1.45
1.48
1.40
1.23
1.03
0.93
1.02
1.33
1.76
2.12
2.21
1.90
1.24
0.42
-0.27
-0.63
-0.67
-0.56
-0.57
-0.95
-1.74
-2.82
-3.91
-4.71
-4.95
-4.53
-3.45
-1.87
-0.08
1.65
3.10
4.16
4.84
5.20
5.29
5.07
4.49
3.51
2.16
0.61
-0.86
-1.95
-2.50
-2.49
-2.16
-1.85
-1.89
-2.36
-3.14
-3.89
-4.28
-4.18
-3.74
-3.25
-3.06
-3.38
-4.15
-5.18
-6.23
-7.13
-7.78
-8.12
-8.07
-7.57
-6.55
-5.08
-3.29
-1.38
0.43
1.98
3.16
3.93
4.27
4.22
3.84
3.20
2.38
1.55
0.87
0.50
0.55
0.99
1.65
2.31
2.70
2.70
2.30
1.67
0.98
0.36
-0.11
-0.49
-0.88
-1.41
-2.17
-3.18
-4.32
-5.40
-6.13
-6.27
-5.67
-4.36
-2.53
-0.43
1.64
3.44
4.78
5.58
5.78
5.41
4.57
3.47
2.37
1.53
1.09
1.04
1.27
1.58
1.81
1.88
1.74
1.41
0.91
0.29
-0.36
-0.92
-1.29
-1.46
-1.59
-1.91
-2.65
-3.86
-5.38
-6.80
-7.71
-7.78
-6.92
-5.30
-3.21
-1.04
0.90
2.43
3.48
4.09
4.33
4.28
4.00
3.55
2.98
2.37
1.79
1.32
1.01
0.86
0.83
0.88
0.91
0.90
0.84
0.76
0.71
0.67
0.56
0.31
-0.18
-0.95
-1.96
-3.17
-4.47
-5.70
-6.60
-6.85
-6.19
-4.53
-2.11
0.55
2.88
4.43
5.10
5.10
4.79
4.41
4.02
3.53
2.85
2.02
1.23
0.68
0.46
0.46
0.50
0.40
0.15
-0.14
-0.30
-0.24
-0.04
0.10
-0.04
-0.57
-1.47
-2.60
-3.77
-4.87
-5.88
-6.85
-7.81
-8.62
-9.04
-8.79
-7.69
-5.79
-3.43
-1.05
0.92
2.22
2.85
2.97
2.82
2.60
2.44
2.35
2.36
2.38
2.37
2.31
2.20
2.09
2.04
2.04
1.96
1.61
0.84
-0.35
-1.72
-2.92
-3.62
-3.73
-3.44
-3.16
-3.30
-4.04
-5.31
-6.82
-8.18
-9.16
-9.59
-9.43
-8.66
-7.24
-5.25
-2.84
-0.33
1.89
3.52
4.42
4.72
4.63
4.41
4.21
4.09
4.01
3.96
3.90
3.88
3.94
4.14
4.45
4.79
5.04
5.03
4.69
4.01
3.08
2.03
0.99
0.04
-0.79
-1.55
-2.32
-3.19
-4.25
-5.53
-7.04
-8.68
-10.30
-11.69
-12.63
-12.94
-12.51
-11.32
-9.44
-7.05
-4.39
-1.76
0.61
2.55
3.98
4.91
5.35
5.37
5.09
4.67
4.30
4.15
4.29
4.72
5.32
5.94
6.44
6.70
6.69
6.42
6.01
5.51
4.98
4.44
3.83
3.09
2.14
0.98
-0.39
-1.86
-3.29
-4.57
-5.64
-6.59
-7.60
-8.85
-10.47
-12.31
-13.99
-14.99
-14.83
-13.35
-10.76
-7.57
-4.36
-1.57
0.60
2.17
3.29
4.11
4.70
5.09
5.33
5.47
5.61
5.86
6.29
6.90
7.59
8.20
8.54
8.50
8.07
7.36
6.57
5.88
5.35
4.93
4.46
3.81
2.90
1.73
0.42
-0.93
-2.19
-3.23
-3.96
-4.36
-4.57
-4.84
-5.53
-6.95
-9.19
-12.05
-15.04
-17.55
-19.02
-19.13
-17.86
-15.43
-12.27
-8.77
-5.29
-2.08
0.73
3.02
4.73
5.81
6.34
6.51
6.61
6.88
7.45
8.21
8.93
9.37
9.40
9.12
8.76
8.61
8.79
9.21
9.63
9.75
9.39
8.57
7.45
6.25
5.17
4.22
3.35
2.42
1.37
0.22
-0.94
-2.02
-3.00
-3.92
-4.88
-5.98
-7.31
-8.96
-11.00
-13.43
-16.04
-18.41
-19.93
-20.09
-18.60
-15.62
-11.71
-7.53
-3.69
-0.48
2.10
4.25
6.13
7.76
9.06
9.89
10.20
10.06
9.68
9.29
9.09
9.16
9.49
9.91
10.32
10.59
10.70
10.66
10.45
10.07
9.44
8.56
7.43
6.20
5.01
3.96
3.08
2.31
1.51
0.58
-0.51
-1.77
-3.14
-4.58
-6.06
-7.63
-9.32
-11.21
-13.33
-15.55
-17.58
-19.02
-19.41
-18.48
-16.20
-12.81
-8.78
-4.60
-0.66
2.77
5.60
7.75
9.21
10.02
10.31
10.31
10.29
10.49
10.91
11.47
11.95
12.15
11.96
11.44
10.74
10.01
9.30
8.56
7.68
6.60
5.36
4.08
2.89
1.89
1.05
0.20
-0.81
-2.08
-3.62
-5.34
-7.13
-8.98
-10.92
-13.01
-15.18
-17.20
-18.69
-19.18
-18.33
-16.08
-12.71
-8.70
-4.62
-0.94
2.09
4.37
5.96
6.97
7.63
8.27
9.28
11.01
13.57
16.80
20.22
23.25
25.40
26.38
26.16
24.90
22.83
20.17
17.07
13.65
10.04
6.38
2.87
-0.27
-2.87
-4.89
-6.41
-7.65
-8.81
-10.07
-11.46
-12.95
-14.48
-15.95
-17.22
-18.09
-18.24
-17.41
-15.46
-12.47
-8.76
-4.78
-0.95
2.45
5.26
7.46
9.11
10.32
11.21
11.87
12.35
12.64
12.72
12.62
12.50
12.52
12.83
13.44
14.16
14.73
14.92
14.62
13.88
12.86
11.70
10.47
9.21
7.87
6.45
4.95
3.48
2.16
1.11
0.40
-0.04
-0.37
-0.87
-1.84
-3.51
-5.95
-9.04
-12.42
-15.56
-17.84
-18.76
-17.98
-15.50
-11.61
-6.85
-1.82
2.93
7.02
10.30
12.81
14.81
16.64
18.64
21.02
23.73
26.46
28.78
30.32
31.05
31.27
31.59
32.64
34.81
38.02
41.78
45.42
48.35
50.31
51.40
51.96
52.35
52.85
53.80
55.60
58.83
64.01
71.36
80.61
91.06
101.97
112.88
123.62
133.87
142.65
147.95
147.06
137.57
118.57
91.43
59.77
28.35
1.67
-17.37
-28.09
-31.73
-30.63
-27.35
-24.03
-22.19
-22.82
-26.56
-33.77
-44.54
-58.78
-76.31
-97.04
-120.82
-147.19
-175.05
-202.51
-227.22
-246.89
-259.80
-264.95
-262.06
-251.20
-232.73
-207.43
-176.72
-142.67
-107.54
-73.31
-41.32
-12.46
12.24
31.12
42.14
44.08
38.27
29.46
24.91
31.55
52.49
84.89
120.52
149.18
163.22
160.73
145.91
126.59
110.43
101.91
101.47
106.35
112.31
114.89
110.30
95.93
71.18
38.30
2.67
-28.19
-46.85
-48.60
-33.44
-6.22
25.15
52.61
70.62
77.36
74.22
64.13
49.88
33.26
15.22
-3.31
-20.85
-35.43
-45.46
-50.59
-52.11
-52.28
-53.36
-56.58
-61.76
-67.75
-73.14
-77.19
-80.25
-83.54
-88.38
-95.33
-103.68
-111.65
-117.29
-119.72
-119.97
-120.94
-126.14
-138.07
-156.58
-178.47
-198.31
-210.58
-211.99
-203.06
-188.04
-173.16
-163.97
-163.03
-168.96
-177.32
-182.82
-181.39
-171.58
-154.18
-131.06
-103.70
-72.48
-37.12
2.23
43.97
84.86
120.88
148.63
166.70
176.10
179.64
180.57
181.18
181.89
181.43
177.79
169.42
156.08
138.98
120.13
101.54
84.58
69.83
57.38
47.14
38.95
32.67
27.84
23.83
20.02
16.13
12.45
9.71
8.72
9.96
13.49
19.01
26.21
34.86
44.73
55.34
65.82
75.03
81.94
86.00
87.38
86.97
86.14
86.42
89.22
95.55
105.82
119.59
135.55
151.69
165.68
175.33
179.00
175.76
165.37
148.17
125.12
97.71
67.99
38.38
11.34
-10.98
-27.15
-36.52
-39.28
-36.24
-28.69
-18.18
-6.38
5.20
15.36
23.56
29.98
35.63
42.04
50.87
63.28
79.50
98.54
118.44
136.78
151.50
161.61
167.20
169.33
169.16
167.26
163.05
154.86
140.18
116.32
81.37
35.44
-18.02
-71.85
-116.38
-142.21
-143.60
-120.86
-80.50
-32.90
11.27
44.20
62.22
65.18
54.67
32.51
0.29
-40.29
-86.68
-135.25
-181.60
-221.44
-251.24
-268.86
-274.14
-268.89
-256.50
-240.83
-224.88
-209.78
-194.90
-178.80
-160.66
-141.20
-122.39
-106.32
-93.77
-83.66
-73.63
-61.39
-46.03
-28.46
-10.73
5.16
18.19
28.29
35.76
40.51
41.83
38.92
31.56
20.70
8.32
-3.25
-12.24
-17.89
-20.64
-21.55
-21.77
-22.02
-22.47
-22.94
-23.15
-22.98
-22.53
-21.92
-21.26
-20.48
-19.48
-18.22
-16.89
-15.87
-15.57
-16.21
-17.64
-19.36
-20.74
-21.26
-20.75
-19.45
-17.90
-16.62
-15.93
-15.86
-16.14
-16.43
-16.50
-16.30
-15.95
-15.63
-15.48
-15.51
-15.68
-16.01
-16.61
-17.62
-19.08
-20.77
-22.20
-22.71
-21.83
-19.45
-15.91
-11.84
-7.89
-4.44
-1.56
0.93
3.21
5.38
7.40
9.13
10.51
11.58
12.47
13.35
14.35
15.53
16.83
18.10
19.18
19.94
20.33
20.43
20.38
20.26
20.08
19.76
19.17
18.27
17.18
16.13
15.40
15.24
15.63
16.37
17.08
17.43
17.28
16.72
16.09
15.70
15.74
16.20
16.93
17.79
18.85
20.44
23.04
27.23
33.39
41.50
51.08
61.05
69.95
76.24
78.77
77.07
71.62
63.62
54.78
46.76
40.92
37.83
37.13
37.64
37.71
35.83
31.20
23.96
15.00
5.43
-4.04
-13.30
-22.73
-32.80
-43.72
-55.34
-67.29
-79.28
-91.27
-103.32
-115.51
-127.71
-139.43
-149.78
-157.63
-161.81
-161.52
-156.64
-147.84
-136.22
-122.64
-107.23
-89.21
-67.47
-41.38
-11.55
19.96
50.26
76.58
97.27
112.34
123.26
132.28
141.20
150.48
158.61
162.57
158.75
144.35
118.48
82.52
40.13
-3.58
-43.10
-73.93
-93.51
-101.46
-99.20
-88.91
-72.63
-51.71
-26.93
0.78
29.55
56.42
77.90
91.01
94.52
89.24
78.52
67.55
62.08
66.38
81.42
104.20
128.44
147.08
154.08
147.42
129.41
104.73
77.80
50.96
24.75
-0.82
-24.61
-46.01
-63.37
-74.80
-79.40
-78.52
-75.84
-76.00
-83.51
-101.35
-134.16
-184.07
-249.16
-322.76
-394.59
-452.92
-487.05
-491.01
-464.70
-418.55
-365.81
-317.42
-278.84
-250.59
-230.93
-217.75
-211.10
-187.38
-133.66
-51.32
44.05
134.80
210.79
269.12
310.29
331.71
334.51
315.34
273.37
212.67
141.56
69.43
3.08
-41.60
-54.93
-36.04
2.02
41.76
70.13
83.20
84.59
80.80
77.38
74.99
71.89
64.01
49.96
32.14
15.12
2.99
-2.62
-2.32
0.37
2.04
-0.33
-7.49
-17.40
-27.31
-35.30
-40.94
-44.73
-48.59
-54.12
-62.24
-72.38
-82.92
-92.22
-99.30
-104.20
-107.15
-109.05
-110.58
-111.78
-112.07
-110.51
-106.28
-98.62
-89.91
-81.32
-73.54
-66.57
-59.84
-52.60
-44.42
-35.57
-26.89
-19.48
-13.55
-8.65
-3.53
3.36
13.31
26.73
42.97
60.76
78.63
96.01
113.20
131.22
151.69
176.61
208.12
247.96
296.28
350.16
403.27
446.36
469.90
467.40
438.06
387.16
323.77
257.07
193.11
133.96
79.06
27.74
-18.80
-57.46
-84.70
-98.44
-99.05
-89.09
-72.14
-51.84
-31.30
-13.08
0.55
7.61
6.97
-0.90
-13.35
-25.82
-33.14
-31.40
-19.67
-0.90
18.84
32.69
35.87
27.84
12.39
-4.30
-16.63
-21.95
-21.18
-17.47
-14.01
-12.46
-12.76
-13.99
-15.74
-18.39
-22.52
-27.78
-32.18
-32.61
-26.52
-13.67
3.19
19.14
29.37
31.29
25.66
15.88
6.09
-0.90
-4.64
-6.71
-9.33
-13.82
-19.85
-25.70
-29.33
-29.51
-26.41
-21.45
-16.58
-13.37
-12.41
-13.18
-14.42
-14.78
-13.45
-10.53
-6.98
-4.17
-3.16
-4.22
-6.77
-9.65
-11.76
-12.54
-12.09
-10.91
-9.50
-8.02
-6.39
-4.67
-3.23
-2.67
-3.34
-4.88
-6.13
-5.60
-2.39
3.23
9.73
15.03
17.50
16.67
13.25
8.49
3.43
-1.55
-6.56
-11.69
-16.59
-20.39
-22.13
-21.32
-18.25
-13.88
-9.69
-7.10
-7.05
-9.68
-14.20
-19.14
-22.90
-24.36
-23.22
-20.24
-16.78
-14.20
-13.16
-13.35
-13.69
-12.96
-10.31
-5.46
1.11
8.31
14.82
19.52
21.88
22.08
20.94
19.51
19.21
20.79
24.17
28.52
32.89
36.65
39.72
42.29
44.48
47.16
50.58
54.33
57.68
60.26
62.43
65.03
68.72
73.42
80.10
88.93
99.25
109.82
119.47
127.70
134.63
140.72
146.61
155.19
168.39
185.99
205.19
221.81
232.23
234.71
229.91
206.56
161.07
98.19
29.69
-32.23
-80.66
-114.47
-135.73
-147.30
-152.12
-150.49
-143.05
-131.36
-117.88
-104.95
-93.83
-84.69
-77.06
-70.81
-64.16
-55.84
-45.61
-34.38
-23.39
-13.56
-5.32
1.18
5.34
8.01
10.29
12.99
16.35
20.12
23.69
26.17
26.69
23.81
17.62
9.06
-0.64
-10.66
-21.25
-34.20
-53.05
-76.31
-104.50
-137.46
-174.27
-213.47
-253.13
-290.66
-322.74
-345.73
-356.66
-355.43
-344.44
-327.94
-310.17
-292.95
-274.65
-251.25
-219.25
-178.32
-133.15
-91.37
-60.45
-44.25
-41.05
-44.36
-46.02
-39.95
-23.80
0.86
30.61
61.93
92.44
121.20
148.22
173.68
196.97
217.65
235.51
250.41
261.22
265.73
261.05
244.62
215.03
171.88
117.36
56.64
-2.96
-53.96
-90.27
-108.99
-111.35
-96.38
-68.58
-36.04
-6.17
18.28
38.17
55.77
71.85
85.57
95.66
100.75
101.31
99.21
96.64
93.89
90.64
85.98
79.04
69.59
56.77
40.86
23.29
5.86
-11.49
-28.93
-47.14
-66.87
-88.48
-112.33
-138.47
-167.10
-191.64
-211.57
-226.02
-232.02
-224.95
-201.08
-160.77
-109.14
-54.75
-6.38
29.24
51.09
62.51
68.54
73.50
79.50
87.75
99.64
117.12
140.87
169.95
200.20
224.53
235.27
227.34
201.21
163.09
122.48
87.83
64.11
51.20
45.50
42.24
37.42
29.43
19.05
8.22
-1.69
-10.26
-18.16
-26.72
-37.63
-52.51
-72.53
-97.93
-127.53
-158.41
-185.98
-205.11
-211.63
-203.96
-183.74
-155.25
-124.14
-95.49
-72.41
-55.34
-42.54
-30.99
-17.70
-0.65
20.69
45.15
70.17
92.58
109.80
120.86
127.06
131.49
137.51
147.06
159.27
170.49
175.93
172.04
158.26
137.25
113.27
90.15
69.96
53.06
39.37
29.57
25.22
27.56
35.83
46.35
53.24
50.48
34.22
4.14
-36.79
-83.70
-131.33
-175.08
-211.30
-237.38
-251.90
-254.93
-248.07
-233.91
-215.21
-193.75
-169.84
-142.30
-109.21
-69.11
-22.37
27.88
75.89
114.74
138.73
145.65
137.68
120.29
99.74
80.33
63.22
47.20
30.86
14.61
1.05
-6.49
-6.25
0.44
9.38
15.37
14.60
6.23
-7.61
-23.25
-37.47
-48.89
-58.27
-67.53
-78.34
-90.80
-103.13
-112.29
-115.21
-110.19
-97.65
-80.13
-61.42
-45.26
-34.02
-28.14
-26.13
-25.42
-23.49
-18.82
-11.39
-2.40
6.26
12.63
15.20
13.30
7.38
-1.02
-9.60
-16.09
-18.88
-17.63
-13.14
-6.88
-0.28
5.67
10.30
13.18
14.04
13.18
11.80
11.94
15.57
23.16
32.72
39.94
39.79
28.74
6.49
-23.68
-56.21
-85.38
-107.19
-120.12
-124.90
-123.63
-118.91
-113.14
-107.96
-103.85
-99.90
-94.35
-85.47
-72.80
-57.74
-43.10
-31.75
-25.16
-22.83
-22.73
-22.70
-21.63
-20.08
-19.66
-21.79
-26.69
-32.91
-37.77
-38.41
-32.84
-20.60
-2.80
18.48
40.85
62.20
80.87
95.57
105.11
108.40
104.89
94.97
80.27
63.26
46.40
31.26
18.17
6.43
-5.03
-17.03
-29.76
-42.67
-54.40
-62.83
-65.29
-59.37
-44.13
-21.15
5.31
29.68
47.32
56.55
59.23
59.43
60.94
65.14
70.42
73.54
71.70
64.42
53.74
43.12
35.75
33.42
36.49
44.44
56.60
72.66
92.72
117.09
145.76
177.68
210.14
238.67
257.64
261.71
247.69
216.09
171.44
121.17
73.09
32.77
1.94
-21.25
-40.47
-58.98
-77.88
-95.76
-109.26
-114.50
-109.03
-93.36
-71.50
-50.37
-38.16
-41.93
-65.22
-106.65
-160.05
-216.18
-265.41
-300.24
-316.75
-314.70
-296.59
-266.53
-229.23
-189.54
-151.75
-119.17
-93.49
-74.15
-58.43
-41.77
-18.92
14.71
61.21
118.81
181.66
241.09
288.38
317.78
328.41
324.19
311.82
297.80
286.05
276.91
267.92
255.61
237.29
212.29
182.18
150.27
120.63
96.82
80.71
71.83
67.76
65.24
61.94
57.17
51.48
45.52
38.80
29.44
15.26
-4.63
-28.70
-53.30
-74.20
-88.69
-96.92
-101.81
-107.37
-116.63
-130.08
-145.58
-159.60
-168.96
-172.21
-169.80
-163.47
-155.02
-145.42
-134.53
-121.47
-105.46
-86.52
-66.08
-46.71
-31.65
-23.87
-25.09
-35.11
-51.74
-71.33
-89.95
-104.65
-114.24
-119.39
-121.98
-124.11
-127.03
-130.46
-132.52
-130.09
-119.65
-98.09
-63.70
-16.85
39.80
101.77
163.93
221.96
273.43
318.00
356.67
390.63
420.35
445.63
466.06
481.79
493.53
502.11
507.64
509.09
504.49
491.91
470.54
441.13
405.68
366.67
326.33
286.19
247.04
209.19
172.90
138.70
107.42
80.03
57.25
39.21
25.21
13.82
3.20
-8.16
-20.86
-34.60
-48.64
-62.33
-75.57
-88.95
-103.57
-121.15
-143.03
-169.78
-200.98
-235.36
-270.73
-304.22
-332.61
-353.18
-365.55
-370.68
-370.41
-366.75
-361.51
-355.83
-349.92
-343.17
-334.66
-325.44
-316.51
-308.15
-299.76
-290.57
-280.21
-269.00
-257.90
-248.43
-244.29
-247.73
-258.03
-271.62
-283.82
-290.80
-290.77
-284.26
-260.77
-218.60
-165.20
-113.35
-72.73
-45.81
-29.89
-20.72
-14.80
-9.95
-8.00
-9.04
-11.70
-13.56
-12.51
-7.63
0.96
12.74
27.40
43.66
59.10
73.26
86.92
101.00
115.83
131.22
147.19
164.49
183.57
205.29
230.24
257.32
283.01
301.98
308.86
300.16
275.15
235.04
182.80
122.62
59.37
-1.62
-54.87
-95.58
-120.81
-130.57
-128.20
-118.90
-107.81
-98.44
-92.15
-88.72
-87.22
-86.77
-86.70
-86.28
-84.30
-79.23
-69.78
-55.51
-37.11
-16.19
5.59
27.22
48.73
70.89
94.38
119.01
143.30
164.85
181.11
190.40
192.47
188.69
181.29
172.47
163.72
155.61
148.17
141.44
135.73
131.47
128.89
127.33
125.07
119.87
110.05
95.40
77.40
58.88
42.61
30.83
24.06
21.00
19.43
17.44
14.41
10.79
7.87
6.15
5.47
4.19
-0.15
-9.54
-24.40
-43.21
-63.87
-84.01
-102.40
-117.39
-127.14
-129.54
-122.66
-105.92
-80.70
-51.16
-22.05
-5.56
-10.15
-36.74
-77.67
-121.35
-158.67
-182.09
-193.83
-197.02
-194.09
-185.13
-169.15
-146.86
-119.21
-87.65
-53.39
-17.50
20.03
58.70
97.56
134.02
164.04
183.52
189.87
183.39
166.77
144.62
121.05
99.03
79.78
63.21
48.89
36.49
26.08
17.57
10.97
5.91
2.03
-0.95
-3.31
-5.24
-6.87
-8.16
-8.85
-8.33
-6.10
-1.98
3.66
10.02
16.36
22.25
27.74
33.05
38.27
43.03
46.68
48.82
49.83
50.88
53.38
58.20
65.14
72.94
79.65
83.39
82.91
78.09
70.04
60.98
53.78
51.11
54.65
64.39
78.52
94.03
107.51
116.04
117.68
111.49
97.47
76.42
49.73
19.06
-14.05
-48.47
-83.31
-117.54
-149.40
-176.46
-196.19
-206.95
-208.95
-204.37
-196.54
-188.65
-182.51
-178.17
-174.45
-169.98
-164.15
-157.48
-151.22
-146.57
-143.91
-142.70
-141.91
-140.73
-139.03
-137.15
-135.01
-131.28
-123.15
-107.17
-80.90
-44.51
-1.46
42.42
80.89
109.48
126.73
134.14
134.94
132.50
129.28
126.48
124.28
122.33
119.98
116.46
110.99
102.97
92.27
79.34
65.01
50.09
35.15
20.47
6.26
-7.15
-19.20
-29.45
-37.76
-44.37
-49.69
-53.95
-57.00
-58.40
-57.86
-55.55
-52.10
-48.40
-45.06
-42.24
-39.73
-37.34
-35.11
-33.36
-32.43
-32.38
-32.86
-33.37
-33.44
-32.83
-31.50
-29.34
-26.09
-21.45
-15.26
-7.78
0.29
7.99
14.51
19.34
22.45
24.10
24.66
24.44
23.65
22.52
21.27
20.15
19.28
18.66
18.07
17.31
16.33
15.31
14.62
14.61
15.37
16.66
18.01
19.01
19.47
19.48
19.30
19.17
19.03
18.68
17.69
15.67
12.37
7.71
1.82
-5.07
-12.56
-20.15
-27.19
-32.92
-36.63
-37.76
-36.16
-32.16
-26.54
-20.30
-14.38
-9.37
-5.39
-2.18
0.75
3.74
6.90
9.95
12.48
14.13
14.95
15.41
16.20
17.95
20.83
24.54
28.41
31.84
34.54
36.59
38.27
39.75
41.20
42.87
45.36
49.50
55.92
64.46
73.98
82.66
88.77
91.53
91.31
89.22
86.17
82.15
76.17
66.92
53.70
37.15
19.09
1.81
-13.05
-25.08
-35.07
-44.25
-53.46
-62.65
-70.96
-77.24
-80.66
-80.99
-78.54
-73.80
-67.31
-59.58
-51.32
-43.45
-36.98
-32.63
-30.42
-29.63
-29.01
-27.29
-23.63
-17.94
-10.83
-3.41
3.08
7.65
9.91
10.30
9.99
10.36
12.29
15.34
17.47
15.38
5.62
-13.93
-42.73
-77.07
-110.78
-136.98
-150.32
-148.75
-134.14
-111.29
-86.02
-63.09
-44.91
-31.35
-20.73
-11.05
-1.01
9.79
21.23
33.09
45.19
57.12
67.90
75.93
79.37
76.90
68.53
55.89
41.85
29.66
21.92
19.79
22.74
28.92
35.79
40.97
42.84
40.95
35.92
29.21
22.47
16.98
13.21
10.73
8.57
5.84
2.23
-1.83
-5.37
-7.57
-8.17
-7.72
-7.28
-7.89
-10.02
-13.39
-17.12
-20.20
-22.04
-22.66
-22.67
-22.82
-23.71
-25.48
-27.86
-30.32
-32.28
-33.24
-32.83
-30.88
-27.44
-22.77
-17.39
-11.92
-6.97
-3.01
-0.27
1.23
1.72
1.52
1.13
1.05
1.64
3.01
4.92
6.91
8.53
9.58
10.20
10.84
12.00
14.00
16.82
20.11
23.26
25.67
27.02
27.52
27.92
29.42
33.20
40.03
50.07
63.07
78.77
97.12
118.07
141.00
164.38
186.09
204.36
218.57
229.30
237.47
243.02
244.49
239.80
227.92
210.27
190.70
173.87
162.92
157.94
156.10
153.33
146.46
134.47
118.38
100.18
81.75
64.13
47.77
32.83
19.43
7.58
-3.04
-13.16
-23.77
-35.66
-49.14
-63.86
-79.06
-93.99
-108.40
-122.75
-138.33
-157.12
-181.35
-212.74
-251.24
-294.06
-335.43
-367.83
-384.47
-381.91
-361.65
-329.55
-293.49
-260.29
-233.58
-213.49
-198.00
-184.84
-172.80
-161.82
-152.15
-143.61
-135.25
-125.88
-114.75
-102.02
-88.64
-75.94
-64.91
-55.88
-48.48
-41.90
-35.34
-28.32
-20.94
-13.76
-7.60
-3.13
-0.54
0.68
1.61
3.50
7.36
13.45
21.25
29.69
37.59
44.21
49.40
53.46
56.87
59.95
62.73
64.97
66.27
66.25
64.68
61.60
57.41
52.82
48.77
46.06
45.08
45.61
46.98
48.28
48.69
47.58
44.52
39.16
31.24
20.80
8.47
-4.44
-16.11
-24.70
-28.80
-27.79
-21.82
-11.55
2.11
18.16
35.43
52.50
67.68
79.21
85.71
86.51
81.89
73.02
61.60
49.37
37.72
27.48
18.90
11.87
6.19
1.72
-1.55
-3.58
-4.40
-4.19
-3.29
-2.02
-0.63
0.72
1.94
2.91
3.42
3.23
2.20
0.39
-1.87
-4.12
-5.90
-6.98
-7.41
-7.51
-7.73
-8.53
-10.26
-13.16
-17.26
-22.41
-28.24
-34.13
-39.31
-43.00
-44.61
-43.92
-41.23
-37.20
-32.64
-28.23
-24.31
-20.82
-17.56
-14.37
-11.39
-8.93
-7.34
-6.75
-7.01
-7.70
-8.38
-8.71
-8.58
-7.96
-6.93
-5.53
-3.80
-1.82
0.28
2.31
4.08
5.44
6.36
6.91
7.21
7.41
7.60
7.74
7.72
7.39
6.71
5.81
4.97
4.42
4.21
4.11
3.72
2.65
0.76
-1.71
-4.25
-6.24
-7.27
-7.17
-6.12
-4.41
-2.32
-0.06
2.32
4.80
7.35
9.93
12.50
14.94
17.10
18.73
19.45
18.88
16.79
13.27
8.79
4.09
-0.03
-2.97
-4.44
-4.51
-3.39
-1.37
1.38
4.71
8.48
12.51
16.54
20.30
23.49
25.77
26.76
25.97
23.06
17.99
11.19
3.56
-3.79
-9.86
-14.05
-16.35
-17.11
-16.88
-16.08
-14.91
-13.37
-11.32
-8.66
-5.39
-1.69
2.07
5.26
7.18
7.25
5.25
1.57
-2.93
-7.08
-9.88
-10.85
-10.14
-8.38
-6.32
-4.46
-2.92
-1.53
0.00
1.83
3.87
5.82
7.32
8.07
8.00
7.27
6.23
5.26
4.56
4.10
3.61
2.78
1.53
0.15
-0.82
-0.91
0.02
1.57
3.03
3.75
3.46
2.41
1.10
-0.05
-0.94
-1.77
-2.80
-4.10
-5.36
-6.08
-5.78
-4.22
-1.60
1.68
5.16
8.57
11.79
14.73
17.21
18.88
19.36
18.42
16.21
13.23
10.15
7.57
5.85
4.98
4.77
4.93
5.24
5.61
6.02
6.54
7.30
8.46
10.11
12.17
14.35
16.18
17.22
17.21
16.20
14.48
12.42
10.28
8.13
5.89
3.45
0.75
-2.26
-5.61
-9.38
-13.51
-17.69
-21.21
-23.13
-22.59
-19.20
-13.29
-5.85
1.82
8.51
13.47
16.47
17.74
17.65
16.68
15.17
13.44
11.71
10.15
8.90
8.03
7.52
7.32
7.28
7.20
6.94
6.45
5.83
5.26
4.92
4.88
5.06
5.25
5.23
4.86
4.15
3.27
2.40
1.70
1.18
0.67
-0.04
-1.13
-2.64
-4.41
-6.18
-7.72
-8.91
-9.79
-10.49
-11.11
-11.66
-11.97
-11.84
-11.05
-9.56
-7.42
-4.84
-2.05
0.70
3.20
5.34
7.05
8.32
9.18
9.67
9.85
9.80
9.64
9.50
9.50
9.67
9.95
10.22
10.31
10.20
9.94
9.67
9.54
9.56
9.66
9.69
9.48
8.98
8.22
7.29
6.31
5.31
4.27
3.11
1.76
0.20
-1.54
-3.38
-5.24
-7.00
-8.55
-9.75
-10.46
-10.54
-9.94
-8.62
-6.67
-4.24
-1.58
0.99
3.18
4.77
5.72
6.15
6.34
6.53
6.89
7.37
7.78
7.98
7.90
7.63
7.34
7.17
7.19
7.35
7.57
7.70
7.62
7.30
6.77
6.16
5.62
5.21
4.93
4.71
4.37
3.81
3.03
2.14
1.32
0.64
0.07
-0.53
-1.27
-2.26
-3.44
-4.67
-5.79
-6.77
-7.75
-8.95
-10.34
-11.64
-12.50
-12.55
-11.52
-9.41
-6.47
-3.17
0.02
3.17
6.35
9.47
12.25
14.44
16.05
17.35
18.80
20.94
24.83
31.21
40.26
51.69
65.13
80.28
96.69
113.69
130.24
145.91
159.94
171.35
179.01
182.35
181.45
176.90
169.64
155.73
134.93
110.69
88.46
72.14
62.66
58.87
57.74
56.58
53.00
45.65
33.25
16.05
-5.38
-29.77
-55.42
-80.92
-105.45
-129.16
-152.44
-176.65
-203.76
-235.60
-271.89
-309.15
-340.76
-358.70
-356.61
-332.06
-288.31
-233.28
-176.81
-127.03
-88.24
-60.80
-42.54
-30.56
-22.07
-14.63
-5.85
6.56
24.35
47.77
75.03
102.68
126.61
143.62
152.29
153.20
148.22
139.56
128.87
116.87
103.67
89.24
74.04
59.00
45.29
33.71
24.45
17.12
11.08
5.72
0.49
-5.18
-12.07
-21.02
-32.69
-47.07
-63.18
-79.03
-92.15
-100.14
-101.25
-94.75
-80.95
-61.05
-36.89
-10.78
14.80
37.45
55.26
67.20
73.32
74.72
73.04
69.94
66.54
63.23
59.89
56.28
52.39
48.42
44.66
41.29
38.10
34.45
29.50
22.45
12.92
1.25
-11.51
-23.80
-34.18
-41.82
-46.82
-49.92
-51.96
-53.39
-54.04
-53.50
-51.51
-48.11
-43.58
-38.06
-31.31
-22.93
-12.80
-1.53
9.30
17.33
19.97
14.91
0.39
-24.39
-58.70
-99.29
-140.17
-173.68
-192.98
-195.19
-183.27
-165.30
-151.27
-148.78
-159.94
-181.05
-204.96
-224.55
-235.43
-236.53
-229.00
-214.45
-194.03
-168.44
-138.56
-105.74
-71.34
-36.25
-0.81
34.80
69.63
101.50
127.20
143.43
147.87
140.01
121.35
95.28
66.45
39.99
20.37
10.25
9.65
15.93
24.68
31.40
33.05
28.91
20.20
8.90
-3.45
-16.25
-29.87
-45.07
-62.60
-82.94
-106.19
-131.73
-157.90
-181.91
-200.29
-209.86
-208.81
-197.41
-177.86
-153.50
-127.65
-102.78
-80.19
-60.23
-42.76
-27.57
-14.50
-3.31
6.31
14.80
22.52
29.61
35.80
40.59
43.47
44.21
43.11
40.96
38.87
37.89
38.67
41.32
45.43
50.37
55.58
60.85
66.42
72.94
81.35
92.78
108.34
128.69
153.50
181.00
208.05
230.87
246.30
252.88
251.31
243.98
233.91
223.53
214.03
205.37
196.82
187.50
176.88
164.81
151.64
138.20
125.77
115.73
109.08
105.83
104.88
104.31
102.13
97.04
88.81
78.23
66.70
55.71
46.46
39.49
34.43
29.92
23.81
13.94
-0.80
-19.63
-39.80
-57.52
-69.51
-74.46
-73.60
-69.94
-66.73
-65.89
-67.36
-69.45
-69.90
-66.95
-59.85
-48.84
-34.79
-18.85
-2.49
12.59
24.62
32.24
35.28
35.24
35.17
38.55
47.83
63.19
82.19
100.64
114.20
119.98
117.38
107.90
94.10
78.52
62.90
47.97
33.77
20.16
7.19
-4.57
-14.23
-20.85
-24.03
-24.33
-23.40
-23.42
-26.15
-32.16
-40.60
-49.72
-57.85
-64.25
-69.25
-73.62
-77.74
-81.00
-82.05
-79.47
-72.65
-62.27
-50.00
-37.96
-27.84
-20.50
-15.89
-13.30
-11.80
-10.51
-8.79
-6.32
-2.99
1.20
6.27
12.31
19.35
27.17
35.08
41.85
46.04
46.53
42.97
36.12
27.61
19.40
13.06
9.23
7.59
7.20
7.09
6.75
6.35
6.55
8.15
11.63
16.97
23.56
30.42
36.47
40.76
42.70
42.18
39.56
35.52
30.86
26.14
21.59
17.12
12.60
8.10
4.07
1.13
-0.16
0.28
1.96
4.05
5.79
6.80
7.21
7.47
7.97
8.83
9.85
10.75
11.32
11.55
11.43
10.78
9.09
5.69
0.03
-8.06
-18.24
-29.72
-41.53
-52.60
-61.93
-68.73
-72.46
-72.93
-70.40
-65.46
-58.89
-51.49
-43.84
-36.36
-29.34
-23.05
-17.76
-13.63
-10.70
-8.71
-7.24
-5.81
-4.08
-1.99
0.20
2.01
3.01
2.94
1.86
0.09
-1.91
-3.71
-5.00
-5.70
-5.93
-5.95
-6.11
-6.75
-8.00
-9.74
-11.56
-12.91
-13.32
-12.58
-10.83
-8.53
-6.27
-4.58
-3.79
-4.02
-5.14
-6.83
-8.66
-10.06
-10.56
-9.85
-7.97
-5.34
-2.60
-0.39
0.87
1.10
0.48
-0.66
-2.01
-3.33
-4.42
-5.15
-5.41
-5.23
-4.72
-4.08
-3.48
-3.04
-2.68
-2.31
-1.79
-1.02
-0.05
1.06
2.15
3.02
3.49
3.47
2.94
1.87
0.25
-2.01
-4.95
-8.31
-11.45
-13.38
-13.14
-10.25
-5.09
1.05
6.32
8.95
7.92
3.24
-4.00
-12.02
-18.94
-23.16
-23.74
-20.47
-13.77
-4.57
5.93
16.41
25.65
32.63
36.67
37.48
35.24
30.63
24.71
18.62
13.40
9.69
7.61
6.81
6.71
6.76
6.59
6.13
5.45
4.62
3.67
2.49
1.05
-0.58
-2.18
-3.48
-4.29
-4.61
-4.67
-4.74
-5.07
-5.76
-6.77
-8.01
-9.35
-10.65
-11.74
-12.47
-12.75
-12.70
-12.56
-12.60
-12.87
-13.10
-12.75
-11.27
-8.47
-4.66
-0.62
2.81
5.08
6.16
6.45
6.43
6.41
6.33
5.94
5.01
3.61
2.06
0.83
0.31
0.59
1.54
2.79
3.99
4.86
5.29
5.33
5.18
5.06
5.18
5.58
6.06
6.31
6.03
5.15
3.87
2.62
1.75
1.42
1.49
1.73
1.92
2.07
2.26
2.55
2.80
2.75
2.19
1.16
0.11
-0.37
0.20
1.80
3.85
5.39
5.47
3.58
-0.12
-4.91
-9.73
-13.58
-15.74
-15.98
-14.56
-12.10
-9.48
-7.59
-7.08
-8.16
-10.53
-13.53
-16.35
-18.29
-18.93
-18.18
-16.26
-13.60
-10.76
-8.38
-6.95
-6.71
-7.46
-8.71
-9.81
-10.31
-10.10
-9.53
-9.15
-9.46
-10.67
-12.57
-14.63
-16.31
-17.21
-17.29
-16.77
-15.96
-14.95
-13.58
-11.54
-8.63
-4.99
-1.20
1.99
4.04
4.89
4.98
5.00
5.43
6.34
7.36
7.96
7.78
6.86
5.56
4.37
3.65
3.44
3.54
3.68
3.67
3.49
3.28
3.17
3.23
3.38
3.53
3.53
3.31
2.85
2.14
1.22
0.10
-1.15
-2.41
-3.47
-4.11
-4.11
-3.40
-2.03
-0.19
1.80
3.54
4.60
4.60
3.42
1.22
-1.49
-4.05
-5.85
-6.55
-6.17
-5.03
-3.53
-2.02
-0.66
0.45
1.21
1.50
1.18
0.25
-1.11
-2.49
-3.38
-3.35
-2.24
-0.24
2.05
3.87
4.55
3.82
1.88
-0.60
-2.90
-4.53
-5.42
-5.89
-6.36
-7.09
-8.02
-8.83
-9.20
-8.97
-8.27
-7.32
-6.37
-5.45
-4.57
-3.69
-2.98
-2.70
-3.11
-4.24
-5.82
-7.36
-8.37
-8.65
-8.28
-7.61
-6.97
-6.44
-5.85
-4.93
-3.51
-1.66
0.35
2.17
3.62
4.64
5.28
5.50
5.22
4.35
2.97
1.33
-0.20
-1.33
-2.02
-2.46
-2.91
-3.48
-4.02
-4.15
-3.49
-1.86
0.57
3.29
5.62
6.93
6.84
5.32
2.73
-0.38
-3.34
-5.65
-7.06
-7.53
-7.18
-6.17
-4.64
-2.73
-0.59
1.56
3.50
5.04
6.10
6.68
6.88
6.84
6.77
6.87
7.34
8.31
9.75
11.52
13.30
14.75
15.58
15.69
15.12
14.15
13.10
12.24
11.70
11.41
11.19
10.84
10.26
9.43
8.43
7.32
6.08
4.63
2.85
0.73
-1.68
-4.24
-6.79
-9.19
-11.29
-12.93
-13.92
-14.08
-13.31
-11.62
-9.21
-6.33
-3.36
-0.62
1.57
3.10
3.94
4.25
4.30
4.38
4.82
5.77
7.23
8.97
10.58
11.63
11.82
11.08
9.63
7.83
6.06
4.54
3.29
2.18
1.07
-0.11
-1.33
-2.51
-3.59
-4.62
-5.69
-6.90
-8.35
-10.06
-12.09
-14.43
-16.96
-19.30
-20.85
-20.87
-18.78
-14.47
-8.37
-1.45
5.20
10.64
14.40
16.47
17.18
16.97
16.20
15.17
14.12
13.26
12.80
12.86
13.44
14.41
15.51
16.44
17.02
17.16
16.99
16.72
16.60
16.76
17.09
17.37
17.29
16.68
15.50
13.96
12.35
10.96
10.00
9.57
9.57
9.58
8.99
7.08
3.32
-2.30
-9.19
-16.33
-22.62
-27.32
-30.26
-31.77
-32.35
-32.37
-31.88
-30.72
-28.75
-25.97
-22.65
-19.18
-15.93
-13.17
-10.94
-9.12
-7.48
-5.77
-3.79
-1.48
1.07
3.61
5.80
7.35
8.00
7.66
6.42
4.66
3.07
2.58
4.14
8.31
14.92
22.97
30.82
36.75
39.56
38.88
35.27
29.82
23.62
17.46
11.69
6.42
1.74
-2.12
-4.90
-6.49
-7.07
-7.14
-7.29
-8.04
-9.59
-11.85
-14.45
-16.98
-19.01
-20.25
-20.52
-19.81
-18.30
-16.23
-13.90
-11.51
-9.15
-6.85
-4.64
-2.65
-1.03
0.13
0.87
1.46
2.26
3.56
5.39
7.52
9.51
10.89
11.40
11.04
10.12
9.05
8.20
7.74
7.59
7.53
7.31
6.82
6.09
5.26
4.48
3.80
3.22
2.70
2.24
1.86
1.56
1.26
0.84
0.18
-0.78
-1.93
-3.13
-4.21
-5.04
-5.59
-5.94
-6.32
-6.97
-8.12
-9.81
-11.82
-13.63
-14.62
-14.31
-12.57
-9.66
-6.12
-2.53
0.72
3.40
5.40
6.64
7.02
6.56
5.43
4.01
2.70
1.79
1.37
1.34
1.56
1.96
2.53
3.32
4.30
5.37
6.37
7.14
7.59
7.70
7.45
6.83
5.79
4.36
2.64
0.84
-0.80
-2.06
-2.85
-3.20
-3.20
-3.00
-2.74
-2.55
-2.53
-2.77
-3.28
-4.00
-4.79
-5.44
-5.80
-5.83
-5.67
-5.54
-5.63
-5.99
-6.49
-6.85
-6.82
-6.30
-5.37
-4.21
-3.08
-2.08
-1.23
-0.35
0.76
2.29
4.32
6.71
9.16
11.26
12.73
13.41
13.46
13.15
12.77
12.48
12.24
11.93
11.42
10.71
9.95
9.34
9.00
8.95
9.06
9.15
9.00
8.45
7.34
5.56
3.12
0.18
-3.00
-6.03
-8.57
-10.35
-11.20
-11.14
-10.34
-9.18
-8.22
-8.06
-9.16
-11.63
-15.24
-19.44
-23.59
-27.22
-30.10
-32.10
-33.16
-33.19
-32.14
-30.08
-27.31
-24.20
-21.05
-18.02
-15.10
-12.23
-9.45
-6.91
-4.81
-3.23
-2.12
-1.30
-0.60
0.06
0.61
0.96
1.11
1.19
1.45
2.12
3.35
5.09
7.16
9.23
11.00
12.22
12.76
12.66
12.08
11.23
10.35
9.61
9.11
8.82
8.69
8.56
8.25
7.60
6.46
4.77
2.57
0.04
-2.54
-4.91
-6.91
-8.52
-9.94
-11.41
-13.06
-14.76
-16.12
-16.58
-15.73
-13.47
-10.11
-6.28
-2.65
0.35
2.55
4.07
5.07
5.58
5.53
4.85
3.61
2.10
0.76
-0.09
-0.40
-0.43
-0.53
-0.96
-1.62
-2.13
-1.98
-0.83
1.31
3.98
6.41
7.76
7.40
5.19
1.61
-2.33
-5.39
-6.48
-5.07
-1.42
3.57
8.76
13.11
16.02
17.30
17.05
15.36
12.23
7.67
1.83
-4.77
-11.27
-16.64
-19.96
-20.79
-19.34
-16.33
-12.75
-9.46
-6.94
-5.20
-3.95
-2.90
-1.85
-0.84
-0.12
0.04
-0.62
-2.17
-4.42
-6.94
-9.15
-10.49
-10.66
-9.66
-7.77
-5.33
-2.57
0.47
3.71
6.95
9.70
11.35
11.43
9.90
7.22
4.14
1.42
-0.50
-1.56
-2.06
-2.40
-2.95
-3.87
-5.13
-6.51
-7.70
-8.41
-8.48
-8.03
-7.42
-7.11
-7.43
-8.33
-9.43
-10.12
-9.94
-8.76
-6.79
-4.47
-2.10
0.23
2.65
5.32
8.23
11.11
13.47
14.88
15.11
14.24
12.63
10.80
9.25
8.36
8.28
8.94
10.17
11.71
13.27
14.60
15.37
15.26
14.03
11.57
8.04
3.93
-0.09
-3.33
-5.25
-5.72
-4.95
-3.46
-1.89
-0.74
-0.35
-0.82
-2.06
-3.82
-5.80
-7.59
-8.76
-8.98
-8.15
-6.49
-4.44
-2.50
-1.02
-0.10
0.38
0.59
0.66
0.62
0.41
0.02
-0.47
-0.89
-1.03
-0.72
0.09
1.33
2.81
4.31
5.59
6.46
6.76
6.44
5.46
3.85
1.75
-0.59
-2.81
-4.53
-5.52
-5.80
-5.59
-5.19
-4.81
-4.46
-4.02
-3.41
-2.67
-2.10
-2.07
-2.86
-4.47
-6.57
-8.65
-10.17
-10.79
-10.37
-8.97
-6.77
-3.96
-0.82
2.33
5.07
6.99
7.85
7.63
6.61
5.24
3.97
3.08
2.58
2.32
2.09
1.78
1.45
1.26
1.39
1.87
2.57
3.22
3.60
3.59
3.27
2.89
2.71
2.91
3.42
4.06
4.49
4.45
3.76
2.45
0.65
-1.41
-3.48
-5.36
-6.81
-7.67
-7.79
-7.11
-5.69
-3.73
-1.53
0.57
2.25
3.32
3.74
3.62
3.18
2.65
2.23
2.04
2.14
2.52
3.12
3.81
4.43
4.82
4.86
4.55
4.00
3.37
2.73
2.04
1.14
-0.09
-1.62
-3.26
-4.70
-5.69
-6.14
-6.15
-5.97
-5.87
-6.09
-6.77
-7.96
-9.59
-11.42
-13.09
-14.11
-14.06
-12.68
-10.04
-6.50
-2.65
0.88
3.58
5.19
5.67
5.23
4.22
3.03
1.98
1.28
0.99
1.04
1.35
1.79
2.28
2.71
3.01
3.10
2.96
2.63
2.24
1.91
1.73
1.67
1.64
1.53
1.21
0.61
-0.30
-1.50
-2.92
-4.40
-5.74
-6.75
-7.32
-7.49
-7.40
-7.31
-7.41
-7.72
-8.11
-8.38
-8.35
-7.94
-7.23
-6.30
-5.14
-3.69
-1.83
0.43
2.82
4.89
6.14
6.32
5.59
4.40
3.40
3.02
3.40
4.32
5.43
6.38
7.05
7.44
7.67
7.78
7.75
7.49
6.90
5.97
4.75
3.38
2.01
0.86
0.14
0.09
0.82
2.28
4.18
6.05
7.35
7.62
6.64
4.48
1.43
-2.00
-5.33
-8.10
-9.99
-10.86
-10.71
-9.76
-8.33
-6.83
-5.62
-4.96
-4.88
-5.19
-5.57
-5.68
-5.32
-4.49
-3.30
-1.97
-0.66
0.57
1.72
2.88
4.09
5.40
6.79
8.23
9.58
10.70
11.40
11.56
11.16
10.29
9.04
7.54
5.83
3.97
2.02
0.11
-1.60
-2.98
-4.00
-4.78
-5.47
-6.22
-7.14
-8.21
-9.43
-10.82
-12.37
-13.99
-15.44
-16.31
-16.22
-14.93
-12.56
-9.51
-6.34
-3.43
-0.95
1.21
3.22
5.16
6.95
8.44
9.51
10.20
10.61
10.83
10.84
10.52
9.75
8.51
6.93
5.24
3.71
2.49
1.59
0.87
0.11
-0.89
-2.25
-3.98
-5.96
-7.96
-9.70
-11.01
-11.79
-12.12
-12.22
-12.36
-12.80
-13.68
-14.94
-16.33
-17.39
-17.62
-16.60
-14.17
-10.48
-5.93
-1.07
3.58
7.65
10.94
13.42
15.09
16.01
16.22
15.78
14.78
13.35
11.68
9.90
8.17
6.56
5.09
3.79
2.64
1.65
0.90
0.45
0.34
0.52
0.83
1.04
0.91
0.35
-0.59
-1.68
-2.64
-3.22
-3.34
-3.08
-2.62
-2.13
-1.65
-1.11
-0.40
0.52
1.58
2.55
3.18
3.30
2.89
2.16
1.40
0.95
0.95
1.43
2.21
3.02
3.60
3.75
3.38
2.47
1.06
-0.73
-2.68
-4.48
-5.78
-6.35
-6.16
-5.50
-4.82
-4.55
-4.87
-5.63
-6.54
-7.30
-7.86
-8.38
-9.06
-9.96
-10.94
-11.70
-12.03
-11.85
-11.30
-10.52
-9.60
-8.49
-7.13
-5.51
-3.70
-1.82
0.06
1.92
3.72
5.39
6.71
7.45
7.50
6.94
6.06
5.22
4.79
4.95
5.74
7.04
8.63
10.17
11.35
11.87
11.48
10.12
7.88
5.10
2.19
-0.45
-2.58
-4.22
-5.55
-6.84
-8.20
-9.53
-10.49
-10.70
-9.86
-7.96
-5.22
-2.01
1.26
4.26
6.77
8.68
9.95
10.63
10.88
10.95
11.13
11.70
12.85
14.49
16.35
17.90
18.62
18.07
16.13
13.05
9.36
5.76
2.79
0.76
-0.40
-0.95
-1.23
-1.50
-1.87
-2.33
-2.83
-3.30
-3.67
-3.86
-3.79
-3.44
-2.90
-2.34
-1.89
-1.57
-1.23
-0.64
0.38
1.84
3.51
5.01
5.95
6.16
5.64
4.63
3.45
2.50
2.08
2.43
3.55
5.26
7.12
8.64
9.43
9.32
8.41
6.97
5.31
3.61
1.95
0.35
-1.15
-2.42
-3.35
-3.89
-4.09
-4.09
-4.04
-3.99
-3.98
-4.09
-4.49
-5.39
-6.86
-8.70
-10.39
-11.25
-10.66
-8.36
-4.55
0.13
4.84
8.83
11.59
12.96
13.05
12.12
10.47
8.40
6.17
4.07
2.36
1.27
0.85
1.02
1.58
2.28
3.01
3.76
4.68
5.91
7.42
9.01
10.30
10.92
10.68
9.64
8.08
6.37
4.81
3.57
2.66
1.99
1.41
0.77
-0.05
-1.14
-2.52
-4.12
-5.79
-7.33
-8.55
-9.29
-9.42
-8.93
-7.87
-6.39
-4.69
-2.97
-1.40
-0.10
0.91
1.65
2.20
2.66
3.13
3.71
4.45
5.28
6.07
6.65
6.92
6.87
6.62
6.31
6.03
5.78
5.49
5.07
4.53
3.92
3.36
2.91
2.52
2.10
1.56
0.87
0.07
-0.80
-1.74
-2.80
-4.00
-5.29
-6.45
-7.25
-7.58
-7.56
-7.58
-8.03
-9.12
-10.66
-12.16
-13.01
-12.85
-11.65
-9.74
-7.52
-5.29
-3.12
-0.90
1.48
4.10
6.88
9.70
12.41
14.88
16.96
18.39
18.97
18.56
17.22
15.28
13.14
11.27
9.91
9.11
8.67
8.26
7.54
6.20
4.16
1.48
-1.59
-4.75
-7.68
-10.09
-11.72
-12.40
-12.01
-10.62
-8.55
-6.25
-4.28
-3.13
-2.99
-3.77
-5.12
-6.68
-8.13
-9.40
-10.45
-11.31
-11.93
-12.19
-12.00
-11.42
-10.59
-9.74
-9.01
-8.39
-7.70
-6.65
-5.09
-3.00
-0.55
1.99
4.42
6.60
8.51
10.11
11.34
12.18
12.59
12.61
12.32
11.84
11.20
10.39
9.41
8.29
7.11
6.02
5.12
4.42
3.83
3.19
2.44
1.58
0.74
0.04
-0.49
-0.91
-1.38
-2.03
-2.85
-3.67
-4.27
-4.47
-4.32
-4.08
-4.13
-4.83
-6.24
-8.14
-10.09
-11.62
-12.43
-12.43
-11.75
-10.56
-9.03
-7.22
-5.22
-3.13
-1.13
0.58
1.87
2.71
3.15
3.28
3.17
2.93
2.63
2.37
2.23
2.22
2.27
2.28
2.18
2.04
2.07
2.51
3.48
4.91
6.47
7.67
8.05
7.38
5.73
3.39
0.77
-1.83
-4.30
-6.66
-9.01
-11.39
-13.89
-16.59
-19.54
-22.55
-24.89
-25.36
-22.50
-15.32
-4.02
9.80
23.44
33.96
39.22
38.62
33.08
24.51
14.97
6.03
-1.50
-7.49
-12.19
-15.97
-19.21
-22.18
-24.92
-27.06
-27.75
-25.81
-20.26
-10.83
1.48
14.62
26.00
33.49
36.13
34.30
29.38
22.92
16.02
9.06
1.96
-5.39
-12.67
-19.11
-23.81
-26.15
-26.12
-24.43
-22.32
-21.13
-22.04
-25.73
-32.28
-40.92
-49.88
-56.53
-57.79
-51.20
-35.99
-13.80
11.44
34.79
51.88
60.44
60.80
55.22
46.72
37.77
29.73
23.03
17.77
14.10
12.35
12.55
14.18
16.02
16.50
14.29
8.73
0.09
-10.52
-21.51
-31.28
-38.60
-42.95
-44.59
-44.43
-43.57
-42.74
-41.84
-39.89
-35.49
-27.63
-16.33
-2.89
10.55
21.88
29.74
33.86
34.84
33.58
30.80
26.87
21.89
16.07
9.88
4.04
-0.65
-3.63
-4.75
-4.22
-2.47
-0.01
2.79
5.71
8.70
11.74
14.77
17.64
19.98
21.26
20.87
18.35
13.55
6.86
-0.84
-8.36
-14.51
-18.56
-20.38
-20.47
-19.59
-18.43
-17.29
-16.13
-14.69
-12.77
-10.40
-7.84
-5.43
-3.40
-1.84
-0.65
0.34
1.23
2.07
2.83
3.48
3.94
4.14
3.93
3.23
2.04
0.50
-1.09
-2.41
-3.21
-3.44
-3.23
-2.79
-2.29
-1.77
-1.17
-0.44
0.35
1.05
1.44
1.51
1.35
1.23
1.32
1.59
1.80
1.67
1.05
0.07
-0.91
-1.47
-1.38
-0.70
0.30
1.31
2.17
2.94
3.84
5.12
6.82
8.72
10.38
11.26
10.95
9.27
6.32
2.44
-1.86
-6.01
-9.44
-11.75
-12.72
-12.40
-11.13
-9.37
-7.63
-6.25
-5.39
-5.04
-5.12
-5.56
-6.32
-7.30
-8.33
-9.14
-9.52
-9.40
-8.89
-8.22
-7.63
-7.17
-6.77
-6.26
-5.46
-4.35
-3.05
-1.75
-0.69
0.01
0.35
0.47
0.63
1.10
2.06
3.52
5.31
7.17
8.79
9.95
10.55
10.61
10.20
9.40
8.27
6.88
5.32
3.73
2.21
0.87
-0.25
-1.14
-1.82
-2.31
-2.67
-2.99
-3.38
-3.96
-4.76
-5.78
-6.86
-7.78
-8.23
-7.95
-6.73
-4.57
-1.66
1.63
4.80
7.44
9.26
10.20
10.35
9.85
8.83
7.39
5.66
3.81
2.13
0.84
0.03
-0.37
-0.61
-0.92
-1.44
-2.09
-2.66
-2.85
-2.48
-1.59
-0.48
0.34
0.36
-0.74
-2.91
-5.75
-8.65
-11.07
-12.68
-13.54
-13.94
-14.33
-15.22
-17.08
-20.11
-24.00
-27.62
-29.07
-26.28
-17.91
-4.19
12.76
29.61
42.94
50.53
52.01
48.55
42.10
34.48
26.86
19.87
13.97
9.64
7.37
7.28
8.85
10.98
12.42
12.24
10.24
6.99
3.53
0.87
-0.38
-0.26
0.74
1.89
2.56
2.45
1.55
0.12
-1.48
-2.94
-4.03
-4.65
-4.79
-4.55
-4.09
-3.65
-3.52
-3.90
-4.86
-6.25
-7.74
-8.99
-9.74
-9.82
-9.16
-7.69
-5.37
-2.32
1.07
4.21
6.40
7.26
6.84
5.68
4.55
4.03
4.27
4.96
5.54
5.50
4.61
2.97
0.85
-1.44
-3.68
-5.66
-7.21
-8.19
-8.54
-8.40
-8.06
-7.81
-7.77
-7.79
-7.51
-6.58
-4.94
-2.91
-1.04
0.08
0.14
-0.85
-2.64
-4.85
-7.11
-9.09
-10.43
-10.85
-10.17
-8.50
-6.23
-3.92
-2.09
-1.02
-0.65
-0.65
-0.60
-0.14
0.91
2.57
4.67
6.97
9.16
10.93
12.01
12.21
11.49
10.03
8.24
6.66
5.85
6.20
7.74
10.11
12.64
14.60
15.39
14.75
12.79
9.86
6.40
2.75
-0.84
-4.28
-7.55
-10.61
-13.33
-15.56
-17.10
-17.82
-17.76
-17.06
-15.95
-14.68
-13.37
-12.01
-10.55
-8.89
-7.10
-5.31
-3.68
-2.25
-0.90
0.63
2.49
4.66
6.81
8.51
9.37
9.30
8.50
7.34
6.19
5.22
4.43
3.70
2.93
2.10
1.25
0.42
-0.37
-1.09
-1.69
-2.12
-2.34
-2.45
-2.66
-3.26
-4.45
-6.28
-8.56
-10.97
-13.12
-14.68
-15.44
-15.32
-14.38
-12.79
-10.81
-8.71
-6.77
-5.12
-3.79
-2.64
-1.49
-0.25
1.09
2.46
3.82
5.18
6.61
8.09
9.55
10.77
11.54
11.77
11.50
10.92
10.24
9.59
8.99
8.40
7.74
7.02
6.30
5.68
5.27
5.13
5.26
5.54
5.80
5.81
5.39
4.46
3.01
1.12
-1.15
-3.75
-6.57
-9.43
-11.99
-13.82
-14.53
-13.93
-12.16
-9.67
-7.09
-4.99
-3.71
-3.21
-3.20
-3.23
-3.00
-2.42
-1.64
-0.85
-0.17
0.46
1.21
2.14
3.21
4.17
4.72
4.69
4.04
2.96
1.68
0.45
-0.55
-1.22
-1.58
-1.70
-1.65
-1.55
-1.42
-1.27
-1.08
-0.90
-0.87
-1.26
-2.32
-4.11
-6.44
-8.78
-10.51
-11.11
-10.39
-8.56
-6.13
-3.70
-1.66
-0.17
0.90
1.75
2.58
3.46
4.31
5.02
5.44
5.47
5.05
4.29
3.37
2.57
2.15
2.22
2.69
3.33
3.85
4.03
3.82
3.29
2.57
1.69
0.64
-0.68
-2.25
-3.91
-5.40
-6.45
-6.93
-6.89
-6.50
-5.90
-5.12
-4.03
-2.47
-0.43
1.93
4.29
6.35
8.00
9.28
10.37
11.41
12.33
12.97
13.12
12.70
11.85
10.86
10.08
9.77
9.96
10.49
11.03
11.23
10.80
9.67
7.95
5.92
3.87
1.98
0.25
-1.42
-3.13
-4.84
-6.33
-7.28
-7.55
-7.33
-7.10
-7.43
-8.64
-10.56
-12.56
-13.80
-13.66
-12.06
-9.44
-6.52
-3.95
-2.07
-0.83
-0.00
0.67
1.31
1.93
2.48
2.97
3.42
3.90
4.45
5.06
5.67
6.22
6.66
6.94
7.04
6.97
6.72
6.31
5.73
5.02
4.22
3.39
2.56
1.75
0.90
-0.08
-1.28
-2.72
-4.32
-5.94
-7.38
-8.43
-8.94
-8.86
-8.19
-7.06
-5.61
-4.01
-2.42
-0.95
0.26
1.11
1.50
1.48
1.16
0.79
0.67
1.03
1.98
3.41
5.11
6.75
7.99
8.54
8.20
6.95
5.04
2.98
1.52
1.40
3.09
6.59
11.30
16.20
20.19
22.41
22.51
20.64
17.29
13.09
8.63
4.43
0.89
-1.73
-3.37
-4.25
-4.83
-5.64
-7.14
-9.40
-12.13
-14.67
-16.29
-16.41
-14.84
-11.72
-7.48
-2.69
2.15
6.59
10.27
12.86
14.13
13.97
12.55
10.27
7.66
5.29
3.45
2.21
1.36
0.67
-0.06
-0.86
-1.63
-2.30
-2.81
-3.28
-3.89
-4.81
-6.12
-7.76
-9.53
-11.21
-12.61
-13.60
-14.15
-14.22
-13.72
-12.56
-10.67
-8.09
-5.04
-1.84
1.24
4.01
6.48
8.70
10.73
12.43
13.56
13.88
13.33
12.12
10.64
9.29
8.33
7.81
7.62
7.63
7.76
8.00
8.32
8.62
8.78
8.68
8.26
7.52
6.48
5.13
3.44
1.46
-0.68
-2.73
-4.46
-5.69
-6.44
-6.90
-7.31
-7.90
-8.81
-9.99
-11.28
-12.39
-13.07
-13.15
-12.60
-11.49
-9.96
-8.12
-6.01
-3.65
-1.13
1.38
3.64
5.39
6.52
7.06
7.18
7.06
6.87
6.69
6.55
6.48
6.54
6.82
7.36
8.10
8.86
9.38
9.41
8.78
7.50
5.74
3.78
1.89
0.28
-0.98
-1.89
-2.51
-2.90
-3.13
-3.30
-3.57
-4.11
-5.08
-6.51
-8.29
-10.17
-11.79
-12.83
-13.06
-12.42
-11.00
-9.04
-6.82
-4.60
-2.51
-0.58
1.24
3.01
4.68
6.16
7.30
8.05
8.41
8.51
8.46
8.32
8.12
7.83
7.43
7.00
6.59
6.28
6.05
5.82
5.41
4.70
3.65
2.36
0.96
-0.42
-1.73
-3.00
-4.26
-5.49
-6.56
-7.32
-7.67
-7.67
-7.55
-7.61
-8.12
-9.13
-10.44
-11.70
-12.44
-12.36
-11.32
-9.47
-7.13
-4.68
-2.40
-0.43
1.22
2.61
3.76
4.69
5.40
5.94
6.40
6.89
7.45
8.09
8.72
9.25
9.59
9.69
9.50
8.98
8.07
6.81
5.31
3.80
2.49
1.56
1.03
0.77
0.53
0.04
-0.84
-2.14
-3.66
-5.13
-6.29
-6.99
-7.29
-7.41
-7.61
-8.08
-8.76
-9.41
-9.66
-9.27
-8.19
-6.58
-4.72
-2.84
-1.11
0.44
1.81
3.04
4.12
5.06
5.85
6.50
7.01
7.35
7.54
7.61
7.59
7.48
7.26
6.90
6.41
5.86
5.36
4.97
4.63
4.18
3.46
2.39
1.08
-0.28
-1.46
-2.36
-3.03
-3.59
-4.20
-4.91
-5.71
-6.54
-7.41
-8.36
-9.47
-10.75
-12.06
-13.17
-13.80
-13.72
-12.90
-11.42
-9.43
-7.09
-4.55
-1.99
0.34
2.13
3.20
3.50
3.25
2.81
2.53
2.58
2.97
3.51
4.03
4.42
4.70
4.94
5.18
5.38
5.42
5.23
4.71
3.92
2.96
2.00
1.20
0.68
0.38
0.16
-0.22
-0.91
-1.92
-3.12
-4.29
-5.32
-6.21
-7.12
-8.16
-9.38
-10.61
-11.53
-11.80
-11.24
-9.83
-7.80
-5.47
-3.16
-1.14
0.47
1.64
2.48
3.10
3.60
4.00
4.32
4.59
4.86
5.16
5.48
5.70
5.65
5.21
4.39
3.34
2.33
1.61
1.28
1.28
1.42
1.51
1.48
1.34
1.15
0.90
0.51
-0.14
-1.14
-2.43
-3.89
-5.31
-6.54
-7.52
-8.30
-8.91
-9.38
-9.69
-9.77
-9.58
-9.09
-8.32
-7.25
-5.91
-4.39
-2.84
-1.44
-0.33
0.44
0.95
1.29
1.51
1.60
1.51
1.25
0.94
0.81
1.01
1.59
2.41
3.23
3.90
4.34
4.61
4.80
4.92
4.91
4.66
4.08
3.18
2.03
0.72
-0.62
-1.89
-2.98
-3.84
-4.51
-5.16
-5.97
-7.10
-8.50
-9.90
-10.86
-11.00
-10.11
-8.29
-5.90
-3.39
-1.14
0.60
1.77
2.43
2.68
2.63
2.39
2.10
1.88
1.85
2.03
2.32
2.53
2.46
2.07
1.44
0.83
0.48
0.54
0.92
1.39
1.67
1.61
1.24
0.73
0.23
-0.21
-0.67
-1.26
-2.01
-2.79
-3.33
-3.44
-3.13
-2.69
-2.58
-3.16
-4.50
-6.31
-8.02
-9.04
-8.95
-7.71
-5.56
-2.94
-0.29
2.05
3.88
5.17
5.94
6.29
6.27
5.96
5.42
4.78
4.19
3.82
3.83
4.22
4.89
5.66
6.32
6.77
7.04
7.20
7.33
7.41
7.34
6.96
6.13
4.84
3.17
1.34
-0.45
-1.98
-3.15
-3.96
-4.52
-5.02
-5.66
-6.59
-7.81
-9.19
-10.46
-11.27
-11.32
-10.44
-8.71
-6.43
-4.01
-1.87
-0.25
0.83
1.55
2.19
2.96
3.94
5.00
5.92
6.51
6.69
6.54
6.26
6.10
6.24
6.76
7.56
8.50
9.31
9.82
9.88
9.50
8.74
7.76
6.73
5.82
5.15
4.75
4.51
4.26
3.79
3.00
1.95
0.79
-0.33
-1.37
-2.43
-3.68
-5.14
-6.65
-7.85
-8.33
-7.81
-6.29
-3.99
-1.31
1.35
3.65
5.36
6.39
6.77
6.65
6.27
5.87
5.63
5.59
5.68
5.79
5.81
5.66
5.36
4.98
4.65
4.62
5.09
6.23
7.93
9.82
11.29
11.74
10.84
8.68
5.79
2.86
0.50
-1.05
-1.94
-2.63
-3.62
-5.26
-7.58
-10.29
-12.87
-14.73
-15.38
-14.57
-12.43
-9.41
-6.29
-3.93
-3.05
-4.04
-6.75
-10.54
-14.38
-17.27
-18.50
-17.94
-16.00
-13.39
-10.79
-8.58
-6.80
-5.25
-3.75
-2.24
-0.84
0.32
1.14
1.69
2.09
2.44
2.71
2.72
2.32
1.45
0.28
-0.82
-1.45
-1.35
-0.54
0.69
1.86
2.53
2.39
1.41
-0.26
-2.39
-4.65
-6.72
-8.20
-8.70
-7.93
-5.76
-2.39
1.75
6.04
9.87
12.77
14.54
15.21
14.95
13.99
12.51
10.69
8.73
6.86
5.34
4.37
4.00
4.14
4.55
5.00
5.38
5.65
5.86
5.95
5.79
5.21
4.08
2.49
0.66
-1.05
-2.36
-3.11
-3.36
-3.30
-3.19
-3.32
-3.85
-4.89
-6.36
-8.08
-9.68
-10.77
-10.98
-10.15
-8.34
-5.88
-3.23
-0.82
1.02
2.19
2.80
3.01
3.01
2.88
2.69
2.43
2.16
1.99
2.09
2.58
3.43
4.51
5.53
6.22
6.40
6.07
5.39
4.64
4.02
3.61
3.37
3.16
2.86
2.45
2.02
1.69
1.51
1.35
0.99
0.17
-1.23
-3.07
-5.03
-6.77
-8.09
-9.04
-9.77
-10.33
-10.55
-10.10
-8.66
-6.19
-3.07
0.05
2.56
4.13
4.82
4.99
5.06
5.27
5.63
5.98
6.09
5.83
5.15
4.11
2.86
1.51
0.18
-1.07
-2.23
-3.32
-4.36
-5.35
-6.24
-6.91
-7.28
-7.24
-6.75
-5.80
-4.43
-2.78
-1.07
0.40
1.25
1.25
0.37
-1.15
-2.91
-4.52
-5.73
-6.51
-6.97
-7.19
-7.19
-6.94
-6.45
-5.86
-5.36
-5.08
-4.95
-4.70
-4.01
-2.72
-0.94
1.00
2.71
3.94
4.68
5.06
5.26
5.36
5.39
5.31
5.13
4.93
4.77
4.69
4.66
4.56
4.24
3.59
2.57
1.24
-0.25
-1.66
-2.76
-3.40
-3.58
-3.41
-3.09
-2.85
-2.86
-3.22
-3.94
-4.92
-5.98
-6.87
-7.35
-7.25
-6.60
-5.51
-4.18
-2.78
-1.41
-0.12
1.00
1.82
2.23
2.20
1.83
1.41
1.24
1.52
2.25
3.21
4.09
4.58
4.52
3.90
2.88
1.66
0.45
-0.64
-1.57
-2.36
-3.05
-3.63
-4.05
-4.22
-4.08
-3.66
-3.07
-2.50
-2.09
-1.88
-1.77
-1.59
-1.17
-0.41
0.65
1.88
3.08
4.08
4.74
5.00
4.86
4.42
3.76
3.03
2.30
1.67
1.23
1.05
1.24
1.81
2.69
3.67
4.45
4.75
4.43
3.54
2.34
1.19
0.38
0.03
0.10
0.46
0.91
1.31
1.59
1.73
1.73
1.66
1.54
1.38
1.13
0.66
-0.14
-1.34
-2.84
-4.38
-5.64
-6.32
-6.31
-5.64
-4.50
-3.08
-1.56
-0.06
1.28
2.29
2.82
2.78
2.20
1.24
0.18
-0.72
-1.23
-1.26
-0.86
-0.17
0.62
1.29
1.63
1.47
0.73
-0.50
-2.02
-3.51
-4.64
-5.19
-5.14
-4.68
-4.09
-3.63
-3.41
-3.39
-3.53
-3.78
-4.19
-4.85
-5.75
-6.74
-7.55
-7.87
-7.56
-6.66
-5.37
-3.90
-2.33
-0.71
0.90
2.35
3.34
3.59
3.01
1.79
0.33
-0.88
-1.48
-1.36
-0.66
0.34
1.36
2.26
2.99
3.56
3.96
4.12
3.89
3.15
1.87
0.16
-1.69
-3.33
-4.41
-4.83
-4.66
-4.17
-3.74
-3.63
-3.98
-4.72
-5.62
-6.37
-6.73
-6.57
-5.99
-5.19
-4.39
-3.73
-3.20
-2.73
-2.20
-1.61
-1.04
-0.54
-0.11
0.36
1.00
1.82
2.72
3.49
3.95
4.07
3.99
3.95
4.16
4.69
5.43
6.18
6.67
6.73
6.33
5.55
4.59
3.65
2.83
2.11
1.30
0.24
-1.16
-2.83
-4.56
-6.16
-7.50
-8.55
-9.41
-10.14
-10.69
-10.89
-10.56
-9.55
-7.90
-5.80
-3.55
-1.47
0.21
1.33
1.90
1.97
1.72
1.35
1.08
1.06
1.36
1.90
2.58
3.26
3.92
4.60
5.38
6.25
7.11
7.77
8.07
7.92
7.36
6.55
5.56
4.39
2.98
1.31
-0.50
-2.19
-3.39
-3.89
-3.68
-3.02
-2.29
-1.90
-2.11
-3.03
-4.56
-6.41
-8.20
-9.54
-10.06
-9.61
-8.29
-6.41
-4.38
-2.56
-1.15
-0.13
0.65
1.32
1.98
2.64
3.32
4.04
4.91
5.93
7.04
8.03
8.70
8.90
8.65
8.10
7.45
6.81
6.22
5.64
5.01
4.31
3.53
2.66
1.63
0.43
-0.88
-2.09
-2.95
-3.34
-3.31
-3.19
-3.39
-4.24
-5.82
-7.97
-10.36
-12.60
-14.42
-15.67
-16.31
-16.35
-15.74
-14.35
-12.00
-8.53
-4.06
1.03
6.02
10.14
12.77
13.67
13.14
11.86
10.66
10.22
10.83
12.34
14.22
15.85
16.73
16.69
15.83
14.44
12.73
10.74
8.38
5.65
2.70
-0.10
-2.33
-3.72
-4.33
-4.48
-4.67
-5.31
-6.62
-8.60
-11.02
-13.50
-15.55
-16.73
-16.73
-15.53
-13.39
-10.75
-8.11
-5.74
-3.76
-2.11
-0.70
0.54
1.60
2.46
3.07
3.44
3.62
3.69
3.77
3.97
4.38
5.01
5.77
6.48
6.94
7.06
6.82
6.30
5.58
4.72
3.78
2.81
1.92
1.17
0.59
0.15
-0.26
-0.77
-1.46
-2.33
-3.32
-4.41
-5.57
-6.83
-8.13
-9.35
-10.26
-10.64
-10.36
-9.43
-7.94
-6.11
-4.16
-2.20
-0.30
1.62
3.61
5.68
7.71
9.53
10.92
11.79
12.13
12.08
11.78
11.41
11.12
10.94
10.86
10.78
10.57
10.14
9.47
8.65
7.82
7.11
6.47
5.76
4.77
3.38
1.69
0.01
-1.34
-2.16
-2.55
-2.90
-3.71
-5.32
-7.75
-10.63
-13.31
-15.11
-15.62
-14.83
-13.08
-10.86
-8.62
-6.57
-4.71
-2.96
-1.31
0.11
1.13
1.68
1.87
1.96
2.21
2.78
3.59
4.53
5.42
6.21
6.90
7.51
8.01
8.30
8.30
7.93
7.21
6.20
4.98
3.69
2.47
1.46
0.80
0.48
0.38
0.28
-0.05
-0.72
-1.73
-3.01
-4.50
-6.19
-8.01
-9.73
-10.92
-11.14
-10.07
-7.77
-4.71
-1.57
1.05
2.85
3.85
4.32
4.55
4.68
4.74
4.69
4.61
4.62
4.90
5.48
6.29
7.12
7.79
8.20
8.39
8.49
8.58
8.62
8.48
7.94
6.88
5.34
3.57
1.89
0.62
-0.16
-0.49
-0.61
-0.69
-0.83
-0.97
-1.02
-0.97
-0.95
-1.19
-1.92
-3.17
-4.80
-6.53
-8.11
-9.38
-10.30
-10.83
-10.90
-10.33
-9.02
-6.99
-4.50
-1.97
0.21
1.81
2.84
3.50
3.98
4.42
4.87
5.34
5.90
6.64
7.70
9.09
10.66
12.16
13.24
13.65
13.28
12.27
10.91
9.56
8.56
8.12
8.26
8.86
9.65
10.32
10.62
10.40
9.61
8.35
6.79
5.13
3.53
2.10
0.88
-0.21
-1.30
-2.58
-4.17
-6.05
-8.03
-9.72
-10.72
-10.70
-9.57
-7.52
-5.00
-2.49
-0.34
1.31
2.55
3.56
4.45
5.22
5.76
5.98
5.89
5.64
5.46
5.56
5.98
6.62
7.25
7.68
7.80
7.63
7.27
6.76
6.10
5.21
4.09
2.80
1.52
0.48
-0.20
-0.56
-0.79
-1.16
-1.91
-3.10
-4.64
-6.36
-8.08
-9.69
-11.09
-12.19
-12.88
-13.01
-12.50
-11.34
-9.60
-7.40
-4.93
-2.41
-0.06
1.89
3.28
4.07
4.38
4.44
4.51
4.78
5.32
6.00
6.69
7.18
7.36
7.18
6.67
5.96
5.21
4.56
4.03
3.59
3.10
2.42
1.51
0.41
-0.75
-1.87
-2.88
-3.82
-4.74
-5.71
-6.74
-7.89
-9.16
-10.52
-11.82
-12.82
-13.15
-12.56
-11.03
-8.81
-6.35
-4.12
-2.37
-1.12
-0.16
0.71
1.64
2.57
3.38
3.87
3.95
3.62
3.02
2.38
1.95
1.92
2.37
3.18
4.07
4.77
5.06
4.88
4.31
3.48
2.53
1.52
0.51
-0.50
-1.47
-2.38
-3.27
-4.17
-5.11
-6.11
-7.12
-8.08
-8.90
-9.56
-10.09
-10.57
-11.10
-11.69
-12.31
-12.80
-12.96
-12.61
-11.69
-10.30
-8.61
-6.79
-4.92
-3.04
-1.12
0.76
2.47
3.86
4.86
5.54
6.08
6.65
7.36
8.19
8.99
9.56
9.77
9.61
9.20
8.76
8.50
8.50
8.69
8.88
8.84
8.48
7.85
7.09
6.34
5.60
4.75
3.66
2.24
0.55
-1.22
-2.90
-4.34
-5.50
-6.39
-7.04
-7.53
-7.97
-8.52
-9.32
-10.39
-11.61
-12.67
-13.27
-13.16
-12.35
-11.06
-9.60
-8.20
-6.91
-5.60
-4.07
-2.22
-0.14
1.93
3.69
4.92
5.55
5.72
5.67
5.65
5.85
6.32
6.96
7.65
8.22
8.59
8.74
8.73
8.62
8.45
8.18
7.77
7.15
6.30
5.27
4.18
3.20
2.45
1.97
1.66
1.31
0.70
-0.34
-1.84
-3.70
-5.73
-7.73
-9.51
-10.86
-11.56
-11.40
-10.25
-8.21
-5.64
-3.01
-0.78
0.84
1.95
2.84
3.82
5.00
6.27
7.40
8.16
8.52
8.59
8.54
8.44
8.30
7.99
7.46
6.70
5.81
4.85
3.81
2.59
1.13
-0.58
-2.45
-4.32
-6.05
-7.55
-8.78
-9.72
-10.41
-10.93
-11.43
-12.13
-13.20
-14.69
-16.37
-17.83
-18.54
-18.13
-16.51
-13.90
-10.79
-7.66
-4.85
-2.45
-0.45
1.20
2.48
3.35
3.82
4.04
4.31
4.88
5.91
7.26
8.66
9.76
10.35
10.45
10.17
9.73
9.31
8.97
8.73
8.54
8.34
8.02
7.47
6.62
5.44
3.99
2.38
0.66
-1.15
-3.02
-4.91
-6.65
-8.01
-8.80
-8.91
-8.39
-7.40
-6.09
-4.53
-2.75
-0.74
1.41
3.50
5.25
6.45
7.01
7.04
6.74
6.36
6.07
5.87
5.65
5.30
4.72
3.94
3.08
2.28
1.62
1.12
0.73
0.34
-0.12
-0.69
-1.36
-2.06
-2.73
-3.39
-4.13
-5.08
-6.36
-7.90
-9.41
-10.50
-10.81
-10.22
-8.83
-6.96
-4.94
-3.02
-1.30
0.20
1.49
2.57
3.42
4.05
4.53
4.90
5.19
5.38
5.39
5.24
4.98
4.71
4.51
4.40
4.33
4.19
3.92
3.50
2.95
2.30
1.56
0.75
-0.16
-1.12
-2.15
-3.24
-4.44
-5.79
-7.25
-8.63
-9.64
-9.91
-9.19
-7.41
-4.79
-1.73
1.29
3.84
5.68
6.74
7.10
6.93
6.45
5.91
5.52
5.48
5.87
6.60
7.50
8.34
8.96
9.33
9.50
9.56
9.51
9.26
8.63
7.53
5.97
4.19
2.44
1.02
0.04
-0.55
-0.92
-1.31
-1.92
-2.86
-4.12
-5.59
-7.09
-8.42
-9.33
-9.66
-9.30
-8.23
-6.53
-4.36
-1.97
0.36
2.39
3.97
5.07
5.75
6.14
6.34
6.49
6.71
7.13
7.89
8.98
10.33
11.65
12.64
13.03
12.71
11.78
10.44
8.89
7.28
5.69
4.17
2.82
1.71
0.91
0.39
0.01
-0.40
-0.99
-1.87
-3.04
-4.45
-6.03
-7.69
-9.28
-10.64
-11.56
-11.83
-11.32
-10.06
-8.18
-6.02
-3.95
-2.34
-1.39
-1.11
-1.33
-1.76
-2.15
-2.32
-2.20
-1.80
-1.15
-0.27
0.73
1.74
2.59
3.17
3.44
3.50
3.53
3.64
3.88
4.19
4.46
4.60
4.56
4.31
3.81
3.01
1.89
0.51
-0.98
-2.35
-3.45
-4.23
-4.74
-5.12
-5.50
-5.95
-6.54
-7.28
-8.13
-9.00
-9.66
-9.83
-9.23
-7.74
-5.52
-2.90
-0.37
1.70
3.09
3.82
4.08
4.08
4.04
4.06
4.20
4.43
4.69
4.88
4.94
4.82
4.56
4.24
3.92
3.69
3.57
3.58
3.74
4.02
4.34
4.56
4.54
4.17
3.46
2.55
1.62
0.79
0.09
-0.55
-1.23
-1.98
-2.78
-3.59
-4.39
-5.22
-6.15
-7.15
-8.09
-8.75
-8.89
-8.36
-7.21
-5.63
-3.93
-2.41
-1.26
-0.55
-0.19
-0.03
0.11
0.32
0.65
1.03
1.39
1.72
2.05
2.47
3.03
3.75
4.56
5.35
6.05
6.57
6.86
6.86
6.52
5.83
4.86
3.78
2.79
2.03
1.44
0.89
0.14
-0.96
-2.38
-3.96
-5.45
-6.68
-7.58
-8.22
-8.69
-9.10
-9.42
-9.51
-9.21
-8.42
-7.14
-5.54
-3.87
-2.35
-1.14
-0.27
0.34
0.82
1.27
1.76
2.30
2.81
3.20
3.31
3.02
2.26
1.12
-0.16
-1.27
-1.92
-1.98
-1.53
-0.85
-0.19
0.25
0.40
0.33
0.05
-0.41
-1.13
-2.09
-3.21
-4.27
-5.05
-5.40
-5.31
-4.91
-4.48
-4.27
-4.46
-5.04
-5.86
-6.63
-7.04
-6.90
-6.18
-5.00
-3.55
-2.06
-0.69
0.46
1.33
1.94
2.33
2.57
2.75
2.84
2.79
2.51
1.94
1.14
0.30
-0.36
-0.60
-0.36
0.30
1.21
2.09
2.72
2.91
2.58
1.79
0.73
-0.39
-1.41
-2.33
-3.23
-4.21
-5.26
-6.24
-6.92
-7.14
-6.99
-6.73
-6.76
-7.33
-8.43
-9.68
-10.56
-10.58
-9.55
-7.67
-5.46
-3.52
-2.30
-1.92
-2.21
-2.79
-3.31
-3.45
-2.98
-1.77
0.30
3.19
6.69
10.45
13.98
16.85
18.79
19.67
19.52
18.46
16.62
14.11
11.06
7.58
3.78
-0.17
-4.08
-7.66
-10.63
-12.81
-14.19
-14.95
-15.41
-15.86
-16.54
-17.56
-18.89
-20.45
-22.09
-23.62
-24.80
-25.44
-25.40
-24.70
-23.51
-22.14
-20.92
-20.07
-19.67
-19.58
-19.56
-19.36
-18.80
-17.79
-16.27
-14.24
-11.84
-9.39
-7.42
-6.31
-5.91
-5.32
-3.03
2.36
11.39
23.28
36.12
47.64
56.11
60.86
62.32
61.49
59.36
56.60
53.51
50.16
46.53
42.42
37.40
30.98
22.91
13.63
4.36
-3.19
-7.50
-7.89
-4.93
-0.18
4.46
7.51
8.41
7.49
5.58
3.46
1.61
0.10
-1.17
-2.28
-3.27
-4.17
-5.08
-6.17
-7.55
-9.23
-11.02
-12.68
-13.91
-14.57
-14.64
-14.20
-13.41
-12.43
-11.44
-10.54
-9.80
-9.13
-8.35
-7.29
-5.88
-4.31
-3.05
-2.64
-3.47
-5.51
-8.25
-10.82
-12.38
-12.46
-11.13
-8.85
-6.26
-3.84
-1.81
-0.21
0.97
1.63
1.63
0.85
-0.60
-2.39
-4.00
-4.90
-4.80
-3.66
-1.79
0.37
2.36
3.85
4.71
4.94
4.62
3.83
2.60
0.99
-0.86
-2.66
-4.10
-4.91
-5.06
-4.77
-4.45
-4.49
-5.08
-6.13
-7.31
-8.18
-8.35
-7.66
-6.13
-4.04
-1.71
0.47
2.19
3.29
3.77
3.81
3.64
3.53
3.62
3.93
4.41
4.98
5.63
6.38
7.17
7.87
8.22
7.98
7.02
5.45
3.57
1.78
0.41
-0.36
-0.58
-0.41
-0.11
0.12
0.14
-0.10
-0.64
-1.47
-2.53
-3.74
-4.98
-6.08
-6.84
-7.07
-6.62
-5.45
-3.64
-1.40
0.96
3.10
4.72
5.58
5.49
4.44
2.59
0.32
-1.81
-3.25
-3.58
-2.75
-1.11
0.71
2.03
2.45
1.96
0.96
0.01
-0.41
-0.13
0.67
1.58
2.14
2.03
1.09
-0.65
-3.00
-5.64
-8.12
-9.90
-10.46
-9.58
-7.37
-4.44
-1.58
0.46
1.30
1.03
0.14
-0.80
-1.36
-1.34
-0.81
0.05
1.07
2.15
3.17
4.02
4.52
4.53
4.07
3.35
2.69
2.37
2.42
2.65
2.68
2.25
1.33
0.14
-0.99
-1.87
-2.49
-3.07
-3.76
-4.59
-5.36
-5.81
-5.81
-5.42
-4.87
-4.47
-4.40
-4.68
-5.18
-5.69
-6.03
-6.09
-5.87
-5.44
-4.89
-4.31
-3.68
-2.99
-2.16
-1.16
-0.04
1.13
2.22
3.16
3.89
4.40
4.69
4.73
4.43
3.70
2.45
0.64
-1.66
-4.26
-6.86
-9.13
-10.80
-11.70
-11.78
-11.16
-10.05
-8.66
-7.14
-5.55
-3.97
-2.49
-1.30
-0.66
-0.69
-1.36
-2.39
-3.37
-3.97
-4.03
-3.61
-2.87
-1.94
-0.83
0.50
2.02
3.56
4.82
5.51
5.53
4.97
4.06
3.08
2.17
1.40
0.71
0.01
-0.76
-1.61
-2.50
-3.32
-3.89
-3.98
-3.36
-1.94
0.26
2.98
5.83
8.36
10.21
11.22
11.43
11.04
10.32
9.45
8.57
7.72
6.93
6.25
5.77
5.52
5.47
5.48
5.38
5.05
4.45
3.71
2.99
2.46
2.15
2.01
1.83
1.32
0.25
-1.50
-3.77
-6.12
-7.93
-8.66
-8.02
-6.16
-3.61
-1.09
0.83
1.94
2.39
2.50
2.57
2.68
2.76
2.75
2.69
2.74
3.08
3.70
4.40
4.83
4.72
4.03
2.97
1.86
0.98
0.40
0.01
-0.33
-0.68
-0.96
-1.05
-0.88
-0.60
-0.46
-0.76
-1.57
-2.72
-3.83
-4.47
-4.34
-3.41
-1.84
0.07
2.02
3.72
4.98
5.60
5.55
4.96
4.11
3.42
3.20
3.52
4.17
4.88
5.40
5.71
5.94
6.23
6.65
7.01
7.08
6.60
5.54
4.03
2.38
0.88
-0.29
-1.12
-1.77
-2.50
-3.56
-5.08
-6.99
-9.00
-10.70
-11.69
-11.74
-10.84
-9.19
-7.09
-4.81
-2.56
-0.43
1.52
3.18
4.43
5.16
5.35
5.12
4.68
4.30
4.15
4.26
4.56
4.91
5.19
5.33
5.32
5.17
4.89
4.49
3.95
3.22
2.33
1.30
0.22
-0.78
-1.58
-2.09
-2.35
-2.50
-2.76
-3.35
-4.35
-5.65
-7.00
-8.01
-8.35
-7.90
-6.76
-5.23
-3.61
-2.12
-0.84
0.27
1.24
1.98
2.36
2.26
1.71
0.94
0.22
-0.16
-0.10
0.34
1.00
1.69
2.28
2.70
2.91
2.96
2.93
2.87
2.86
2.87
2.80
2.60
2.21
1.70
1.22
0.94
0.96
1.18
1.34
1.06
0.06
-1.68
-3.92
-6.12
-7.71
-8.29
-7.76
-6.34
-4.34
-2.08
0.32
2.79
5.24
7.47
9.19
10.20
10.53
10.47
10.47
10.88
11.77
12.95
14.04
14.78
15.05
14.99
14.76
14.49
14.17
13.70
12.99
12.04
10.91
9.72
8.51
7.29
6.09
4.99
4.13
3.68
3.70
4.03
4.34
4.25
3.49
2.08
0.31
-1.37
-2.58
-3.17
-3.31
-3.41
-3.95
-5.23
-7.22
-9.55
-11.59
-12.72
-12.57
-11.16
-8.86
-6.24
-3.80
-1.77
-0.14
1.28
2.66
3.98
5.14
6.05
6.71
7.27
7.80
8.31
8.63
8.54
7.86
6.55
4.72
2.52
0.07
-2.59
-5.50
-8.78
-12.51
-16.68
-21.06
-25.15
-28.27
-29.70
-29.02
-26.24
-21.96
-17.11
-12.67
-9.32
-7.20
-6.05
-5.36
-4.65
-3.63
-2.31
-0.80
0.70
2.08
3.27
4.22
4.88
5.15
4.99
4.47
3.70
2.84
1.96
1.14
0.43
-0.02
-0.04
0.50
1.54
2.75
3.67
3.88
3.21
1.77
-0.13
-2.13
-4.03
-5.76
-7.28
-8.52
-9.31
-9.41
-8.61
-6.87
-4.41
-1.62
0.97
2.91
4.00
4.28
4.04
3.65
3.39
3.34
3.43
3.46
3.29
2.84
2.13
1.17
-0.04
-1.46
-2.88
-3.75
-3.33
-0.89
3.85
10.41
17.57
23.67
27.18
27.34
24.31
19.08
13.00
7.19
2.28
-1.65
-4.83
-7.55
-9.88
-11.64
-12.54
-12.33
-11.00
-8.84
-6.39
-4.29
-3.00
-2.65
-2.98
-3.54
-3.95
-4.11
-4.23
-4.68
-5.64
-6.96
-8.16
-8.64
-8.07
-6.55
-4.60
-2.91
-2.01
-2.02
-2.60
-3.19
-3.30
-2.74
-1.73
-0.79
-0.42
-0.94
-2.30
-4.12
-5.94
-7.38
-8.31
-8.82
-9.12
-9.37
-9.58
-9.63
-9.40
-8.83
-8.03
-7.16
-6.42
-5.83
-5.29
-4.60
-3.63
-2.28
-0.61
1.32
3.45
5.68
7.85
9.70
10.89
11.13
10.30
8.57
6.32
4.06
2.22
1.05
0.51
0.37
0.34
0.22
-0.05
-0.34
-0.48
-0.38
-0.15
-0.06
-0.43
-1.45
-3.00
-4.75
-6.21
-7.01
-6.97
-6.18
-4.89
-3.45
-2.19
-1.33
-0.95
-0.95
-1.12
-1.25
-1.25
-1.16
-1.13
-1.26
-1.47
-1.50
-1.06
-0.07
1.29
2.57
3.33
3.31
2.65
1.70
0.90
0.53
0.64
1.08
1.62
2.03
2.07
1.59
0.45
-1.36
-3.62
-5.91
-7.72
-8.60
-8.39
-7.31
-5.85
-4.59
-3.97
-4.07
-4.69
-5.44
-5.89
-5.77
-5.03
-3.85
-2.55
-1.48
-0.87
-0.80
-1.12
-1.59
-1.96
-2.01
-1.66
-0.90
0.22
1.65
3.26
4.88
6.25
7.08
7.15
6.41
4.97
3.06
0.94
-1.16
-3.05
-4.54
-5.41
-5.41
-4.37
-2.36
0.23
2.74
4.45
4.88
3.96
2.07
-0.19
-2.22
-3.61
-4.20
-4.01
-3.14
-1.72
0.02
1.84
3.47
4.74
5.65
6.35
7.10
8.00
9.09
10.18
11.05
11.45
11.23
10.24
8.41
5.69
2.14
-2.04
-6.62
-11.36
-16.10
-20.72
-25.11
-29.05
-32.18
-34.11
-34.59
-33.73
-31.99
-30.11
-28.67
-27.81
-27.05
-25.46
-22.12
-16.53
-8.98
-0.51
7.46
13.64
17.34
18.56
17.93
16.21
14.08
11.89
9.84
8.12
7.02
6.85
7.69
9.29
11.02
12.20
12.38
11.63
10.50
9.67
9.60
10.19
10.88
10.96
10.06
8.42
6.81
6.13
6.90
9.02
11.82
14.41
16.13
16.78
16.60
16.04
15.47
15.09
14.89
14.81
14.77
14.73
14.60
14.22
13.41
12.04
10.08
7.71
5.20
2.87
0.98
-0.32
-1.01
-1.16
-0.90
-0.40
0.13
0.41
0.17
-0.79
-2.51
-4.78
-7.21
-9.31
-10.68
-11.10
-10.62
-9.42
-7.75
-5.81
-3.73
-1.61
0.42
2.18
3.47
4.13
4.16
3.68
2.94
2.18
1.53
1.03
0.67
0.43
0.29
0.21
0.08
-0.21
-0.71
-1.38
-2.03
-2.45
-2.50
-2.25
-1.87
-1.60
-1.62
-1.98
-2.66
-3.60
-4.70
-5.82
-6.74
-7.17
-6.89
-5.86
-4.22
-2.33
-0.57
0.74
1.47
1.66
1.48
1.16
0.88
0.79
0.97
1.42
2.16
3.15
4.33
5.59
6.72
7.51
7.74
7.29
6.21
4.70
3.08
1.66
0.63
0.01
-0.28
-0.42
-0.58
-0.85
-1.28
-1.94
-2.87
-4.07
-5.40
-6.60
-7.34
-7.33
-6.46
-4.86
-2.82
-0.64
1.45
3.36
5.06
6.49
7.52
8.02
7.96
7.49
6.93
6.59
6.66
7.11
7.77
8.41
8.90
9.24
9.48
9.64
9.63
9.33
8.62
7.52
6.20
4.87
3.71
2.80
2.08
1.44
0.76
-0.06
-1.08
-2.36
-3.91
-5.69
-7.50
-8.97
-9.75
-9.57
-8.46
-6.68
-4.63
-2.67
-0.97
0.45
1.62
2.48
2.93
2.89
2.47
1.99
1.86
2.34
3.38
4.64
5.63
6.04
5.83
5.31
4.88
4.86
5.31
6.02
6.65
6.87
6.53
5.67
4.48
3.24
2.18
1.44
0.98
0.68
0.33
-0.23
-1.05
-2.02
-2.99
-3.75
-4.18
-4.24
-3.96
-3.41
-2.63
-1.72
-0.74
0.19
1.01
1.69
2.24
2.67
2.98
3.10
2.94
2.46
1.73
0.90
0.19
-0.24
-0.30
0.01
0.60
1.38
2.24
3.07
3.80
4.38
4.81
5.08
5.19
5.12
4.82
4.29
3.60
2.82
2.01
1.12
0.05
-1.29
-2.89
-4.56
-6.12
-7.45
-8.61
-9.80
-11.14
-12.57
-13.80
-14.48
-14.36
-13.47
-12.06
-10.50
-9.06
-7.81
-6.67
-5.47
-4.13
-2.67
-1.25
-0.02
0.89
1.50
1.95
2.43
3.10
3.96
4.79
5.28
5.17
4.43
3.31
2.24
1.56
1.43
1.76
2.28
2.71
2.90
2.81
2.50
1.99
1.27
0.33
-0.89
-2.32
-3.88
-5.40
-6.65
-7.43
-7.62
-7.18
-6.22
-4.95
-3.60
-2.37
-1.33
-0.46
0.32
1.08
1.77
2.30
2.50
2.29
1.70
0.96
0.38
0.27
0.75
1.69
2.80
3.71
4.22
4.25
3.89
3.24
2.37
1.32
0.22
-0.72
-1.25
-1.21
-0.68
0.03
0.45
0.16
-1.01
-2.93
-5.23
-7.38
-8.86
-9.31
-8.71
-7.32
-5.59
-4.04
-2.99
-2.53
-2.48
-2.59
-2.63
-2.51
-2.20
-1.68
-0.93
0.04
1.14
2.15
2.76
2.77
2.14
1.10
0.05
-0.62
-0.68
-0.18
0.56
1.12
1.20
0.71
-0.10
-0.84
-1.22
-1.16
-0.91
-0.84
-1.31
-2.44
-4.13
-6.12
-8.20
-10.18
-11.93
-13.28
-14.03
-13.97
-13.04
-11.41
-9.42
-7.47
-5.86
-4.72
-3.98
-3.52
-3.19
-2.83
-2.33
-1.58
-0.57
0.60
1.74
2.66
3.22
3.51
3.71
4.04
4.62
5.41
6.26
6.99
7.54
7.99
8.55
9.38
10.53
11.87
13.15
14.11
14.58
14.59
14.25
13.70
13.01
12.10
10.89
9.34
7.58
5.83
4.36
3.23
2.38
1.63
0.86
0.07
-0.59
-0.89
-0.70
-0.04
0.86
1.70
2.20
2.19
1.69
0.89
0.01
-0.71
-1.08
-1.05
-0.64
0.03
0.82
1.62
2.31
2.83
3.15
3.25
3.11
2.73
2.16
1.48
0.79
0.20
-0.21
-0.41
-0.44
-0.39
-0.35
-0.42
-0.68
-1.15
-1.82
-2.63
-3.51
-4.45
-5.47
-6.59
-7.75
-8.79
-9.46
-9.47
-8.70
-7.20
-5.23
-3.18
-1.40
-0.07
0.82
1.41
1.89
2.39
2.95
3.58
4.24
4.90
5.51
6.02
6.38
6.53
6.42
6.06
5.49
4.77
3.98
3.20
2.43
1.67
0.83
-0.14
-1.32
-2.67
-4.02
-5.11
-5.71
-5.70
-5.21
-4.59
-4.27
-4.57
-5.57
-7.06
-8.57
-9.66
-10.04
-9.64
-8.60
-7.18
-5.63
-4.14
-2.85
-1.82
-1.09
-0.66
-0.50
-0.46
-0.39
-0.10
0.56
1.68
3.29
5.29
7.46
9.49
11.03
11.78
11.60
10.54
8.81
6.68
4.46
2.39
0.61
-0.84
-2.04
-3.15
-4.39
-5.94
-7.89
-10.12
-12.33
-14.10
-15.02
-14.83
-13.49
-11.18
-8.21
-4.97
-1.84
0.87
2.97
4.39
5.17
5.44
5.34
4.99
4.48
3.90
3.34
2.92
2.76
2.89
3.22
3.56
3.74
3.62
3.20
2.59
1.86
1.07
0.22
-0.70
-1.58
-2.27
-2.61
-2.57
-2.33
-2.23
-2.63
-3.77
-5.57
-7.66
-9.52
-10.63
-10.71
-9.82
-8.24
-6.44
-4.78
-3.48
-2.49
-1.66
-0.79
0.23
1.34
2.38
3.20
3.68
3.90
4.00
4.15
4.51
5.10
5.83
6.52
7.00
7.15
6.97
6.53
5.97
5.41
4.91
4.50
4.14
3.77
3.35
2.86
2.31
1.70
1.03
0.25
-0.65
-1.72
-2.94
-4.31
-5.81
-7.47
-9.30
-11.26
-13.24
-14.94
-16.02
-16.14
-15.08
-12.93
-10.03
-6.89
-4.03
-1.81
-0.31
0.65
1.36
2.12
3.07
4.20
5.39
6.54
7.63
8.65
9.64
10.51
11.14
11.39
11.24
10.83
10.43
10.27
10.50
11.04
11.66
12.06
11.98
11.31
10.08
8.42
6.52
4.55
2.64
0.98
-0.23
-0.80
-0.63
0.20
1.35
2.38
2.84
2.53
1.49
0.01
-1.55
-2.88
-3.78
-4.24
-4.34
-4.26
-4.32
-4.87
-6.22
-8.42
-11.21
-13.97
-15.93
-16.44
-15.23
-12.49
-8.80
-4.90
-1.43
1.26
3.14
4.38
5.29
6.14
7.05
8.07
9.18
10.31
11.45
12.59
13.66
14.51
14.93
14.71
13.85
12.54
11.15
10.13
9.76
10.02
10.70
11.45
11.97
12.11
11.88
11.36
10.60
9.63
8.49
7.23
5.98
4.82
3.78
2.74
1.60
0.25
-1.28
-2.87
-4.39
-5.77
-7.02
-8.21
-9.40
-10.67
-12.01
-13.38
-14.68
-15.71
-16.19
-15.81
-14.38
-11.94
-8.81
-5.50
-2.54
-0.31
1.08
1.77
2.06
2.28
2.65
3.25
4.06
5.02
6.07
7.23
8.49
9.79
10.96
11.79
12.10
11.88
11.27
10.55
10.02
9.82
9.93
10.18
10.32
10.20
9.76
9.10
8.39
7.82
7.50
7.39
7.27
6.84
5.76
3.75
0.62
-3.68
-9.05
-15.18
-21.53
-27.40
-32.06
-34.95
-35.80
-34.68
-31.96
-28.23
-24.09
-20.09
-16.56
-13.64
-11.24
-9.13
-7.08
-5.00
-2.99
-1.23
0.09
0.92
1.35
1.54
1.63
1.76
1.97
2.33
2.87
3.62
4.49
5.35
6.02
6.37
6.39
6.14
5.79
5.49
5.35
5.40
5.60
5.78
5.78
5.42
4.60
3.36
1.80
0.04
-1.89
-4.00
-6.35
-8.81
-11.07
-12.63
-13.02
-12.02
-9.77
-6.73
-3.43
-0.27
2.57
5.13
7.42
9.39
10.79
11.41
11.15
10.14
8.68
7.19
5.98
5.25
5.06
5.32
5.93
6.73
7.56
8.22
8.53
8.31
7.45
5.94
3.85
1.39
-1.16
-3.48
-5.30
-6.48
-7.11
-7.47
-7.98
-9.00
-10.62
-12.63
-14.55
-15.82
-16.05
-15.13
-13.17
-10.42
-7.14
-3.60
-0.15
2.84
4.98
6.10
6.28
5.92
5.61
5.86
6.99
9.00
11.64
14.43
16.85
18.36
18.55
17.30
14.81
11.57
8.23
5.36
3.25
1.87
0.95
0.19
-0.60
-1.40
-2.15
-2.81
-3.59
-4.80
-6.76
-9.42
-12.33
-14.68
-15.64
-14.75
-12.08
-8.24
-4.07
-0.31
2.66
4.76
6.14
6.90
7.12
6.94
6.56
6.41
6.90
8.27
10.43
12.96
15.25
16.73
17.06
16.20
14.35
11.85
9.00
6.08
3.23
0.54
-1.95
-4.18
-6.12
-7.72
-8.99
-9.96
-10.64
-11.07
-11.23
-11.15
-10.87
-10.50
-10.11
-9.68
-9.06
-7.99
-6.20
-3.57
-0.19
3.63
7.41
10.63
12.87
13.86
13.57
12.21
10.20
8.07
6.29
5.20
4.91
5.27
6.03
6.85
7.42
7.58
7.28
6.60
5.69
4.65
3.51
2.25
0.78
-0.93
-2.81
-4.78
-6.70
-8.47
-10.07
-11.53
-12.90
-14.24
-15.61
-17.02
-18.43
-19.68
-20.44
-20.31
-19.01
-16.49
-13.10
-9.43
-6.09
-3.43
-1.44
0.16
1.71
3.34
4.91
6.10
6.64
6.62
6.37
6.36
6.92
8.00
9.29
10.33
10.78
10.55
9.85
9.02
8.37
8.05
8.00
8.01
7.89
7.50
6.85
6.06
5.27
4.53
3.81
2.98
1.95
0.71
-0.67
-2.08
-3.52
-5.09
-6.99
-9.30
-11.92
-14.47
-16.46
-17.45
-17.23
-15.88
-13.71
-11.12
-8.46
-5.97
-3.80
-1.99
-0.60
0.45
1.30
2.16
3.22
4.56
6.06
7.45
8.47
8.97
9.03
8.89
8.81
8.92
9.23
9.62
10.00
10.33
10.62
10.83
10.83
10.45
9.53
8.03
6.04
3.79
1.53
-0.55
-2.30
-3.63
-4.50
-5.00
-5.30
-5.62
-6.20
-7.17
-8.48
-9.92
-11.17
-11.93
-12.04
-11.49
-10.36
-8.77
-6.81
-4.46
-1.73
1.29
4.33
6.99
8.84
9.61
9.28
8.15
6.68
5.37
4.53
4.28
4.55
5.12
5.73
6.14
6.19
5.88
5.33
4.74
4.33
4.20
4.28
4.34
4.13
3.49
2.45
1.17
-0.15
-1.37
-2.47
-3.46
-4.33
-4.97
-5.31
-5.35
-5.27
-5.35
-5.88
-6.94
-8.36
-9.73
-10.64
-10.79
-10.12
-8.73
-6.81
-4.56
-2.20
0.05
1.90
3.12
3.55
3.27
2.55
1.77
1.23
1.05
1.18
1.39
1.54
1.49
1.27
0.95
0.65
0.51
0.60
0.95
1.47
1.98
2.23
2.05
1.38
0.36
-0.73
-1.57
-1.93
-1.71
-0.96
0.15
1.44
2.72
3.70
4.11
3.74
2.47
0.46
-1.88
-3.99
-5.40
-5.77
-5.10
-3.58
-1.51
0.82
3.17
5.30
6.97
7.90
7.92
7.06
5.58
3.94
2.62
2.00
2.15
2.88
3.79
4.53
4.85
4.74
4.30
3.71
3.09
2.47
1.85
1.20
0.54
-0.08
-0.62
-1.06
-1.46
-1.92
-2.53
-3.33
-4.27
-5.23
-6.05
-6.64
-6.99
-7.20
-7.43
-7.80
-8.32
-8.89
-9.33
-9.44
-9.08
-8.23
-6.95
-5.38
-3.69
-2.07
-0.64
0.49
1.27
1.66
1.66
1.31
0.71
0.00
-0.65
-1.07
-1.13
-0.78
-0.09
0.80
1.66
2.28
2.51
2.38
2.03
1.75
1.78
2.20
2.88
3.52
3.76
3.37
2.34
0.87
-0.77
-2.31
-3.63
-4.70
-5.56
-6.29
-6.91
-7.45
-7.92
-8.34
-8.68
-8.88
-8.78
-8.24
-7.16
-5.58
-3.73
-1.95
-0.52
0.52
1.45
2.78
4.98
8.24
12.25
16.29
19.51
21.28
21.42
20.21
18.19
15.86
13.51
11.16
8.71
6.17
3.67
1.56
0.18
-0.28
0.10
0.99
1.99
2.85
3.68
4.88
6.90
9.93
13.56
16.88
18.77
18.43
15.68
11.07
5.45
-0.30
-5.71
-10.64
-15.01
-18.63
-21.07
-21.87
-20.76
-17.96
-14.06
-9.86
-6.11
-3.28
-1.56
-0.93
-1.31
-2.57
-4.51
-6.80
-8.95
-10.42
-10.76
-9.83
-7.88
-5.52
-3.51
-2.48
-2.71
-4.04
-6.01
-8.05
-9.76
-11.02
-11.94
-12.74
-13.58
-14.39
-14.90
-14.70
-13.48
-11.18
-8.13
-4.96
-2.42
-1.13
-1.39
-3.12
-5.91
-9.22
-12.51
-15.25
-17.05
-17.58
-16.67
-14.34
-10.92
-7.01
-3.32
-0.48
1.16
1.65
1.35
0.77
0.34
0.28
0.62
1.21
1.93
2.73
3.70
5.00
6.70
8.72
10.75
12.34
13.06
12.73
11.51
9.77
7.92
6.12
4.18
1.76
-1.36
-5.01
-8.57
-11.24
-12.44
-12.15
-10.86
-9.42
-8.55
-8.61
-9.51
-10.85
-12.15
-13.07
-13.45
-13.26
-12.52
-11.26
-9.55
-7.50
-5.32
-3.25
-1.50
-0.16
0.77
1.39
1.78
2.01
2.08
1.99
1.76
1.50
1.34
1.39
1.60
1.83
1.87
1.58
0.95
0.14
-0.62
-1.15
-1.38
-1.42
-1.37
-1.34
-1.28
-1.07
-0.64
-0.06
0.40
0.42
-0.26
-1.63
-3.46
-5.35
-6.93
-8.08
-8.86
-9.54
-10.29
-11.12
-11.79
-11.97
-11.37
-9.85
-7.55
-4.76
-1.81
1.01
3.50
5.59
7.23
8.38
9.04
9.25
9.15
8.90
8.65
8.45
8.24
7.90
7.34
6.60
5.87
5.39
5.32
5.66
6.18
6.53
6.36
5.51
4.10
2.42
0.91
-0.08
-0.36
-0.03
0.62
1.12
1.06
0.21
-1.39
-3.42
-5.45
-7.06
-8.01
-8.30
-8.08
-7.62
-7.16
-6.88
-6.88
-7.14
-7.62
-8.18
-8.65
-8.87
-8.75
-8.33
-7.72
-7.04
-6.35
-5.63
-4.83
-3.95
-3.03
-2.19
-1.53
-1.11
-0.86
-0.62
-0.19
0.65
2.01
3.89
6.17
8.57
10.74
12.32
13.01
12.69
11.36
9.15
6.24
2.82
-0.87
-4.43
-7.37
-9.22
-9.67
-8.74
-6.81
-4.45
-2.21
-0.40
0.96
2.06
3.14
4.37
5.72
7.11
8.42
9.62
10.79
12.01
13.39
14.93
16.52
17.95
19.00
19.50
19.49
19.15
18.76
18.54
18.47
18.35
17.84
16.66
14.75
12.27
9.51
6.75
4.11
1.60
-0.87
-3.38
-5.89
-8.28
-10.40
-12.10
-13.26
-13.81
-13.72
-12.96
-11.55
-9.54
-7.00
-3.97
-0.54
3.20
7.03
10.62
13.61
15.70
16.79
17.02
16.71
16.19
15.61
14.91
13.84
12.18
9.90
7.20
4.49
2.18
0.53
-0.45
-0.99
-1.41
-1.96
-2.77
-3.81
-4.95
-6.03
-6.90
-7.37
-7.33
-6.73
-5.68
-4.43
-3.36
-2.80
-2.95
-3.83
-5.24
-6.89
-8.52
-9.90
-10.95
-11.64
-12.00
-12.12
-12.06
-11.92
-11.72
-11.43
-10.99
-10.30
-9.30
-8.01
-6.58
-5.16
-3.89
-2.76
-1.65
-0.38
1.16
2.92
4.72
6.29
7.40
8.02
8.26
8.37
8.58
9.03
9.70
10.39
10.89
10.99
10.62
9.81
8.69
7.41
6.06
4.70
3.31
1.81
0.14
-1.74
-3.83
-6.01
-8.04
-9.61
-10.43
-10.34
-9.42
-7.94
-6.31
-4.85
-3.71
-2.84
-2.04
-1.12
-0.01
1.23
2.49
3.61
4.57
5.40
6.18
6.94
7.65
8.23
8.64
8.88
9.01
9.15
9.35
9.59
9.78
9.81
9.63
9.15
8.35
7.26
5.94
4.50
3.07
1.77
0.62
-0.38
-1.34
-2.34
-3.42
-4.58
-5.82
-7.12
-8.51
-9.98
-11.46
-12.79
-13.73
-14.05
-13.57
-12.30
-10.39
-8.15
-5.92
-3.98
-2.49
-1.47
-0.85
-0.53
-0.41
-0.42
-0.48
-0.44
-0.16
0.52
1.65
3.15
4.81
6.31
7.38
7.86
7.82
7.52
7.30
7.40
7.83
8.41
8.85
8.94
8.69
8.33
8.11
8.21
8.55
8.86
8.76
8.00
6.54
4.58
2.48
0.56
-0.99
-2.10
-2.77
-3.04
-2.94
-2.50
-1.81
-1.08
-0.51
-0.21
0.05
0.83
2.88
6.68
12.17
18.48
24.23
28.04
29.12
27.54
24.17
20.16
16.46
13.44
10.97
8.66
6.25
3.80
1.61
0.02
-0.80
-0.96
-0.76
-0.57
-0.64
-1.04
-1.67
-2.39
-3.06
-3.63
-4.18
-4.81
-5.62
-6.68
-8.01
-9.67
-11.62
-13.80
-16.02
-18.00
-19.43
-20.11
-20.02
-19.26
-18.02
-16.43
-14.55
-12.39
-9.99
-7.51
-5.21
-3.38
-2.23
-1.81
-1.98
-2.40
-2.67
-2.37
-1.21
0.81
3.38
5.86
7.47
7.48
5.54
1.76
-3.29
-8.75
-13.75
-17.57
-19.86
-20.56
-19.89
-18.24
-16.09
-13.97
-12.35
-11.55
-11.63
-12.33
-13.13
-13.38
-12.58
-10.60
-7.72
-4.53
-1.69
0.44
1.85
2.88
3.95
5.31
6.91
8.42
9.44
9.59
8.73
6.89
4.36
1.58
-0.90
-2.61
-3.24
-2.82
-1.67
-0.22
1.09
2.03
2.53
2.62
2.38
1.80
0.88
-0.38
-1.93
-3.65
-5.44
-7.19
-8.83
-10.28
-11.43
-12.05
-11.89
-10.76
-8.60
-5.63
-2.23
1.08
3.91
6.08
7.70
8.99
10.14
11.13
11.76
11.69
10.68
8.74
6.20
3.56
1.36
-0.03
-0.55
-0.35
0.27
1.06
1.90
2.76
3.68
4.61
5.44
6.02
6.30
6.35
6.33
6.39
6.51
6.50
6.10
5.14
3.67
2.05
0.78
0.35
1.04
2.85
5.52
8.67
11.90
14.87
17.32
19.05
19.87
19.69
18.46
16.31
13.46
10.21
6.95
4.02
1.72
0.24
-0.39
-0.36
-0.01
0.28
0.14
-0.52
-1.57
-2.71
-3.61
-4.10
-4.30
-4.50
-5.02
-6.08
-7.62
-9.44
-11.26
-12.88
-14.25
-15.47
-16.67
-17.90
-19.00
-19.66
-19.57
-18.55
-16.69
-14.38
-12.05
-10.06
-8.45
-6.93
-5.08
-2.55
0.68
4.32
7.82
10.64
12.48
13.28
13.25
12.63
11.66
10.45
9.12
7.82
6.88
6.64
7.36
9.00
11.20
13.33
14.76
15.10
14.33
12.80
10.98
9.28
7.96
7.04
6.45
5.99
5.42
4.45
2.82
0.42
-2.64
-6.06
-9.37
-12.15
-14.11
-15.13
-15.24
-14.52
-13.12
-11.23
-9.10
-6.97
-5.00
-3.17
-1.34
0.66
2.89
5.22
7.37
9.02
9.98
10.18
9.76
8.98
8.13
7.46
7.18
7.36
7.97
8.82
9.69
10.32
10.60
10.52
10.24
9.96
9.84
9.90
9.97
9.75
8.88
7.17
4.59
1.42
-1.97
-5.18
-7.90
-9.98
-11.38
-12.20
-12.55
-12.73
-13.06
-13.83
-15.14
-16.73
-18.09
-18.64
-17.97
-16.07
-13.31
-10.19
-7.15
-4.37
-1.85
0.48
2.67
4.59
6.13
7.18
7.79
8.08
8.18
8.11
7.74
6.87
5.39
3.44
1.39
-0.19
-0.80
-0.26
1.31
3.41
5.46
6.94
7.57
7.29
6.22
4.54
2.49
0.39
-1.42
-2.59
-2.98
-2.72
-2.19
-1.87
-2.10
-3.00
-4.44
-6.21
-8.11
-10.02
-11.85
-13.40
-14.42
-14.57
-13.66
-11.65
-8.73
-5.27
-1.65
1.71
4.53
6.62
7.92
8.52
8.56
8.25
7.82
7.47
7.32
7.41
7.64
7.82
7.70
7.08
6.01
4.70
3.54
2.88
2.88
3.44
4.30
5.11
5.63
5.78
5.62
5.27
4.79
4.20
3.44
2.53
1.55
0.65
-0.04
-0.55
-1.06
-1.82
-3.07
-4.89
-7.18
-9.72
-12.23
-14.43
-16.08
-16.89
-16.61
-15.10
-12.45
-9.06
-5.60
-2.77
-1.02
-0.40
-0.57
-0.90
-0.80
0.07
1.74
3.95
6.32
8.49
10.18
11.23
11.55
11.15
10.12
8.72
7.29
6.17
5.56
5.42
5.52
5.52
5.16
4.41
3.46
2.59
2.04
1.79
1.66
1.35
0.69
-0.33
-1.49
-2.51
-3.21
-3.61
-3.90
-4.37
-5.25
-6.59
-8.26
-10.00
-11.49
-12.48
-12.78
-12.35
-11.22
-9.49
-7.33
-4.91
-2.44
-0.07
2.08
3.95
5.53
6.78
7.69
8.21
8.36
8.21
7.87
7.52
7.24
7.03
6.78
6.37
5.75
4.98
4.23
3.67
3.37
3.22
3.03
2.54
1.62
0.27
-1.37
-3.11
-4.73
-6.06
-7.04
-7.66
-8.02
-8.28
-8.63
-9.29
-10.34
-11.78
-13.42
-14.99
-16.10
-16.41
-15.71
-13.94
-11.29
-8.15
-4.97
-2.16
0.04
1.61
2.72
3.59
4.43
5.31
6.21
7.07
7.80
8.36
8.73
8.92
8.92
8.70
8.26
7.66
7.06
6.65
6.58
6.86
7.32
7.65
7.52
6.69
5.12
2.97
0.55
-1.79
-3.78
-5.26
-6.26
-6.92
-7.49
-8.23
-9.39
-11.02
-13.00
-15.00
-16.60
-17.40
-17.18
-15.90
-13.70
-10.82
-7.56
-4.26
-1.21
1.35
3.32
4.76
5.85
6.80
7.64
8.28
8.50
8.18
7.39
6.42
5.63
5.28
5.44
5.94
6.57
7.15
7.63
8.02
8.29
8.30
7.89
6.93
5.46
3.68
1.88
0.31
-0.89
-1.75
-2.39
-2.95
-3.53
-4.19
-4.98
-5.95
-7.18
-8.71
-10.56
-12.64
-14.73
-16.51
-17.62
-17.74
-16.77
-14.79
-12.09
-9.04
-5.93
-2.98
-0.31
2.04
4.02
5.57
6.72
7.54
8.15
8.67
9.13
9.43
9.46
9.21
8.83
8.59
8.74
9.37
10.35
11.34
11.98
11.98
11.30
10.06
8.51
6.88
5.34
3.96
2.76
1.77
0.98
0.34
-0.27
-1.01
-2.02
-3.35
-4.90
-6.57
-8.24
-9.91
-11.64
-13.45
-15.26
-16.82
-17.83
-18.06
-17.43
-16.05
-14.09
-11.79
-9.32
-6.78
-4.28
-1.90
0.32
2.31
4.03
5.44
6.52
7.32
7.91
8.42
8.92
9.45
9.95
10.32
10.47
10.32
9.88
9.19
8.34
7.48
6.82
6.58
6.86
7.60
8.48
9.12
9.15
8.41
7.00
5.16
3.21
1.40
-0.17
-1.56
-2.91
-4.44
-6.34
-8.76
-11.68
-14.92
-18.13
-20.86
-22.69
-23.38
-22.85
-21.26
-18.90
-16.11
-13.14
-10.17
-7.29
-4.55
-2.00
0.29
2.24
3.83
5.14
6.31
7.51
8.85
10.35
11.89
13.33
14.46
15.15
15.33
14.95
14.06
12.73
11.08
9.23
7.29
5.34
3.40
1.50
-0.31
-1.96
-3.37
-4.51
-5.40
-6.14
-6.87
-7.69
-8.71
-9.94
-11.32
-12.72
-13.97
-14.87
-15.30
-15.23
-14.75
-13.99
-13.03
-11.84
-10.31
-8.34
-5.94
-3.24
-0.49
2.06
4.22
5.86
6.97
7.55
7.68
7.54
7.32
7.26
7.54
8.22
9.23
10.41
11.53
12.36
12.73
12.58
11.94
10.95
9.77
8.53
7.26
5.90
4.40
2.73
1.01
-0.62
-2.00
-3.12
-4.08
-5.04
-6.18
-7.61
-9.33
-11.31
-13.40
-15.44
-17.19
-18.41
-18.87
-18.41
-17.02
-14.78
-11.91
-8.73
-5.54
-2.63
-0.17
1.86
3.57
5.19
6.84
8.52
10.07
11.26
11.89
12.01
11.80
11.54
11.44
11.53
11.71
11.77
11.56
11.01
10.15
9.05
7.76
6.36
4.87
3.39
2.01
0.85
-0.07
-0.77
-1.42
-2.18
-3.20
-4.52
-6.12
-7.92
-9.81
-11.71
-13.51
-15.12
-16.37
-17.07
-17.08
-16.34
-14.91
-12.90
-10.45
-7.74
-4.87
-1.96
0.89
3.53
5.81
7.53
8.54
8.80
8.43
7.71
7.07
6.88
7.34
8.39
9.68
10.81
11.47
11.55
11.18
10.59
9.91
9.20
8.42
7.48
6.42
5.28
4.19
3.19
2.26
1.33
0.35
-0.70
-1.79
-2.91
-4.11
-5.50
-7.22
-9.33
-11.78
-14.31
-16.59
-18.17
-18.75
-18.13
-16.37
-13.73
-10.56
-7.24
-4.04
-1.14
1.45
3.72
5.71
7.39
8.72
9.65
10.18
10.41
10.45
10.49
10.65
11.00
11.49
11.97
12.25
12.18
11.69
10.80
9.65
8.40
7.24
6.27
5.56
5.05
4.61
4.07
3.25
2.04
0.45
-1.42
-3.37
-5.18
-6.69
-7.88
-8.79
-9.61
-10.55
-11.77
-13.36
-15.26
-17.23
-18.95
-20.07
-20.33
-19.62
-18.08
-15.95
-13.60
-11.28
-9.11
-7.05
-4.99
-2.86
-0.68
1.42
3.35
5.00
6.40
7.62
8.68
9.61
10.37
10.97
11.46
11.95
12.47
12.98
13.30
13.22
12.60
11.44
9.82
7.91
5.87
3.80
1.78
-0.16
-1.95
-3.54
-4.86
-5.84
-6.47
-6.78
-6.91
-7.09
-7.64
-8.87
-10.95
-13.83
-17.14
-20.19
-22.08
-21.99
-19.44
-14.51
-7.95
-0.91
5.33
9.85
12.32
13.03
12.59
11.68
10.75
10.03
9.58
9.47
9.80
10.59
11.78
13.10
14.21
14.79
14.70
13.99
12.91
11.75
10.74
10.05
9.70
9.62
9.67
9.70
9.54
9.09
8.33
7.37
6.34
5.34
4.38
3.33
1.99
0.25
-1.85
-4.10
-6.19
-7.84
-8.96
-9.72
-10.43
-11.45
-12.96
-14.88
-16.90
-18.50
-19.20
-18.73
-17.04
-14.36
-11.07
-7.54
-4.11
-0.99
1.69
3.87
5.59
6.94
8.00
8.86
9.48
9.80
9.76
9.45
9.07
8.92
9.20
9.96
11.00
11.98
12.50
12.32
11.40
9.92
8.19
6.53
5.17
4.11
3.24
2.35
1.28
-0.03
-1.50
-2.97
-4.32
-5.53
-6.65
-7.84
-9.27
-11.02
-13.12
-15.50
-17.95
-20.15
-21.68
-22.15
-21.29
-19.07
-15.77
-11.90
-8.04
-4.69
-2.08
-0.15
1.30
2.51
3.55
4.39
4.90
5.03
4.90
4.77
4.95
5.64
6.90
8.57
10.38
12.04
13.26
13.88
13.85
13.23
12.10
10.66
9.04
7.40
5.84
4.40
3.09
1.90
0.79
-0.19
-0.97
-1.46
-1.65
-1.65
-1.79
-2.48
-4.10
-6.75
-10.15
-13.56
-15.96
-16.33
-14.06
-9.14
-2.32
5.18
11.95
16.81
19.13
18.86
16.51
12.89
8.89
5.27
2.53
0.88
0.26
0.42
1.05
1.84
2.56
3.08
3.34
3.41
3.43
3.62
4.16
5.06
6.15
7.07
7.41
6.93
5.56
3.54
1.23
-1.03
-2.98
-4.64
-6.11
-7.62
-9.25
-10.97
-12.54
-13.60
-13.83
-13.06
-11.34
-8.91
-6.10
-3.27
-0.72
1.39
2.95
3.97
4.46
4.48
4.07
3.29
2.25
1.13
0.19
-0.33
-0.24
0.49
1.72
3.22
4.66
5.75
6.21
5.96
4.98
3.41
1.50
-0.53
-2.51
-4.36
-6.08
-7.70
-9.27
-10.87
-12.52
-14.18
-15.66
-16.64
-16.73
-15.66
-13.41
-10.21
-6.52
-2.77
0.79
4.01
6.83
9.13
10.64
11.13
10.52
9.07
7.25
5.70
4.82
4.75
5.33
6.16
6.87
7.22
7.16
6.77
6.20
5.54
4.84
4.11
3.38
2.64
1.90
1.05
-0.02
-1.49
-3.48
-6.01
-8.96
-12.06
-14.98
-17.33
-18.76
-19.04
-18.09
-16.05
-13.27
-10.20
-7.26
-4.73
-2.70
-1.11
0.16
1.17
1.95
2.49
2.86
3.19
3.62
4.20
4.84
5.28
5.32
4.84
4.01
3.16
2.72
3.05
4.29
6.38
8.99
11.63
13.71
14.69
14.16
12.05
8.61
4.33
-0.09
-3.98
-6.80
-8.23
-8.22
-6.93
-4.77
-2.22
0.29
2.54
4.59
6.66
8.92
11.21
12.96
13.35
11.69
7.78
2.21
-3.80
-8.75
-11.44
-11.37
-8.86
-4.96
-0.88
2.30
4.03
4.32
3.56
2.30
1.07
0.15
-0.43
-0.85
-1.33
-2.06
-3.06
-4.19
-5.17
-5.77
-5.82
-5.24
-4.06
-2.34
-0.16
2.35
4.96
7.40
9.34
10.56
11.02
10.88
10.43
9.96
9.67
9.62
9.74
9.90
9.93
9.73
9.24
8.44
7.38
6.11
4.71
3.24
1.76
0.29
-1.21
-2.83
-4.65
-6.68
-8.78
-10.72
-12.26
-13.31
-14.04
-14.81
-16.04
-17.90
-20.13
-22.11
-23.04
-22.31
-19.78
-15.81
-11.10
-6.43
-2.34
0.97
3.56
5.59
7.16
8.25
8.84
9.02
9.02
9.16
9.71
10.72
12.00
13.22
14.01
14.19
13.75
12.91
11.95
11.10
10.49
10.04
9.58
8.88
7.80
6.41
4.88
3.46
2.31
1.37
0.39
-0.93
-2.76
-5.04
-7.52
-9.95
-12.17
-14.16
-15.89
-17.19
-17.70
-17.04
-15.03
-11.88
-8.14
-4.51
-1.57
0.46
1.68
2.48
3.22
4.11
5.22
6.43
7.58
8.49
9.10
9.40
9.48
9.47
9.50
9.62
9.86
10.18
10.55
10.90
11.13
11.15
10.83
10.06
8.82
7.20
5.30
3.31
1.36
-0.48
-2.21
-3.85
-5.50
-7.25
-9.23
-11.53
-14.17
-17.00
-19.62
-21.54
-22.24
-21.38
-18.96
-15.33
-11.07
-6.81
-3.02
0.10
2.60
4.73
6.76
8.86
11.01
13.01
14.58
15.44
15.50
14.88
13.91
12.98
12.39
12.25
12.41
12.65
12.76
12.69
12.55
12.50
12.65
12.90
13.04
12.79
12.01
10.78
9.38
8.08
7.08
6.37
5.78
5.11
4.22
3.08
1.66
-0.09
-2.21
-4.67
-7.18
-9.28
-10.38
-10.10
-8.41
-5.68
-2.50
0.58
3.20
5.29
6.92
8.17
9.05
9.50
9.49
9.08
8.47
7.88
7.54
7.57
8.03
8.93
10.28
12.06
14.23
16.67
19.12
21.24
22.66
23.04
22.20
20.14
17.08
13.37
9.46
5.72
2.39
-0.49
-3.04
-5.44
-7.76
-9.88
-11.53
-12.33
-11.94
-10.23
-7.32
-3.59
0.44
4.17
7.13
8.97
9.55
8.93
7.24
4.67
1.43
-2.25
-6.07
-9.73
-12.91
-15.43
-17.24
-18.52
-19.51
-20.46
-21.52
-22.65
-23.73
-24.57
-25.02
-25.05
-24.69
-24.06
-23.29
-22.50
-21.83
-21.41
-21.33
-21.63
-22.17
-22.68
-22.75
-22.04
-20.35
-17.71
-14.34
-10.57
-6.71
-3.02
0.29
3.06
5.12
6.33
6.60
6.00
4.72
3.10
1.53
0.34
-0.29
-0.41
-0.26
-0.17
-0.47
-1.37
-2.85
-4.75
-6.80
-8.70
-10.21
-11.17
-11.52
-11.40
-11.03
-10.69
-10.67
-11.15
-12.12
-13.39
-14.67
-15.61
-15.93
-15.45
-14.13
-12.11
-9.66
-7.10
-4.76
-2.91
-1.66
-1.04
-0.96
-1.29
-1.83
-2.41
-2.86
-3.00
-2.75
-2.05
-0.94
0.42
1.82
3.03
3.85
4.18
4.06
3.62
3.05
2.49
1.96
1.35
0.54
-0.53
-1.85
-3.27
-4.64
-5.79
-6.59
-6.90
-6.59
-5.56
-3.77
-1.32
1.55
4.50
7.22
9.46
11.08
11.98
12.12
11.46
10.08
8.16
6.05
4.17
2.85
2.18
2.00
1.99
1.80
1.24
0.28
-0.91
-2.13
-3.21
-4.10
-4.82
-5.44
-6.02
-6.64
-7.35
-8.11
-8.85
-9.36
-9.35
-8.55
-6.82
-4.25
-1.19
1.90
4.53
6.35
7.22
7.17
6.39
5.18
3.93
3.03
2.82
3.43
4.71
6.29
7.64
8.35
8.26
7.54
6.59
5.78
5.26
4.87
4.20
2.85
0.64
-2.23
-5.19
-7.57
-8.89
-9.06
-8.36
-7.26
-6.14
-5.18
-4.36
-3.67
-3.23
-3.36
-4.29
-6.03
-8.14
-9.86
-10.45
-9.50
-7.19
-4.09
-0.98
1.61
3.62
5.38
7.35
9.84
12.70
15.44
17.43
18.21
17.71
16.30
14.55
13.06
12.19
12.01
12.40
13.17
14.16
15.28
16.40
17.38
18.00
18.06
17.45
16.23
14.58
12.78
11.05
9.52
8.22
7.10
6.09
5.12
4.15
3.19
2.26
1.38
0.53
-0.40
-1.56
-3.12
-5.10
-7.36
-9.50
-11.06
-11.66
-11.15
-9.68
-7.61
-5.31
-3.08
-1.06
0.71
2.25
3.57
4.69
5.60
6.34
6.94
7.41
7.71
7.83
7.78
7.62
7.40
7.17
6.91
6.59
6.22
5.83
5.48
5.24
5.08
4.96
4.82
4.66
4.48
4.32
4.10
3.68
2.83
1.37
-0.69
-3.13
-5.49
-7.29
-8.11
-7.81
-6.52
-4.61
-2.54
-0.81
0.18
0.12
-1.16
-3.59
-6.79
-10.20
-13.12
-15.01
-15.64
-15.11
-13.77
-12.07
-10.33
-8.75
-7.39
-6.18
-5.01
-3.70
-2.04
0.08
2.51
4.81
6.30
6.30
4.47
1.01
-3.29
-7.40
-10.31
-11.42
-10.67
-8.41
-5.22
-1.63
2.02
5.52
8.76
11.61
13.91
15.54
16.40
16.43
15.63
14.03
11.69
8.79
5.55
2.23
-0.94
-3.78
-6.20
-8.12
-9.43
-9.98
-9.63
-8.33
-6.17
-3.43
-0.51
2.22
4.50
6.22
7.44
8.28
8.85
9.26
9.63
10.12
10.93
12.12
13.53
14.66
14.84
13.47
10.33
5.72
0.30
-5.23
-10.33
-14.78
-18.51
-21.37
-23.02
-23.15
-21.65
-18.84
-15.42
-12.15
-9.51
-7.53
-5.95
-4.49
-3.19
-2.35
-2.31
-3.17
-4.67
-6.38
-7.93
-9.30
-10.73
-12.52
-14.67
-16.73
-18.01
-17.83
-15.94
-12.61
-8.58
-4.70
-1.64
0.29
1.23
1.55
1.68
1.89
2.27
2.69
3.05
3.34
3.67
4.24
5.22
6.63
8.33
10.04
11.38
12.06
11.86
10.72
8.82
6.51
4.30
2.63
1.74
1.55
1.65
1.52
0.73
-0.89
-3.15
-5.61
-7.77
-9.23
-9.76
-9.33
-8.05
-6.10
-3.66
-0.91
2.03
5.06
7.99
10.60
12.55
13.55
13.43
12.30
10.51
8.59
6.99
5.98
5.54
5.44
5.37
5.14
4.68
4.10
3.56
3.18
3.01
3.02
3.14
3.24
3.14
2.68
1.67
0.07
-1.89
-3.70
-4.58
-3.79
-0.97
3.52
8.55
12.47
13.57
10.57
2.99
-8.69
-23.06
-38.07
-51.38
-60.83
-64.95
-63.29
-56.49
-46.10
-34.16
-22.64
-13.06
-6.27
-2.47
-1.34
-2.19
-4.13
-6.18
-7.52
-7.58
-6.20
-3.67
-0.60
2.24
4.30
5.42
5.92
6.46
7.66
9.86
12.96
16.52
19.94
22.77
24.76
25.90
26.25
25.86
24.70
22.68
19.67
15.50
10.09
3.54
-3.74
-10.95
-16.97
-20.81
-21.84
-20.12
-16.43
-11.97
-7.97
-5.24
-3.91
-3.51
-3.27
-2.48
-0.83
1.50
3.96
5.93
7.08
7.41
7.29
7.18
7.34
7.70
7.98
7.85
7.29
6.59
6.27
6.86
8.53
11.06
13.79
15.95
16.83
15.99
13.33
9.02
3.48
-2.67
-8.60
-13.33
-15.91
-15.63
-12.34
-6.53
0.66
7.85
13.70
17.33
18.42
17.19
14.19
10.10
5.58
1.14
-2.83
-6.18
-8.98
-11.45
-13.85
-16.39
-19.07
-21.68
-23.93
-25.50
-26.14
-25.73
-24.24
-21.73
-18.37
-14.49
-10.56
-7.11
-4.61
-3.26
-2.97
-3.36
-3.95
-4.36
-4.46
-4.35
-4.28
-4.41
-4.74
-5.06
-5.09
-4.52
-3.17
-0.98
1.96
5.44
9.16
12.78
15.96
18.47
20.18
21.06
21.13
20.35
18.66
15.94
12.20
7.56
2.36
-2.89
-7.65
-11.51
-14.25
-15.89
-16.66
-16.84
-16.74
-16.57
-16.55
-16.83
-17.52
-18.58
-19.75
-20.60
-20.60
-19.34
-16.72
-12.99
-8.66
-4.40
-0.79
1.86
3.45
4.16
4.25
4.01
3.64
3.25
2.90
2.62
2.42
2.38
2.64
3.40
4.92
7.33
10.61
14.53
18.66
22.58
25.94
28.51
30.15
30.74
30.17
28.43
25.70
22.34
18.82
15.51
12.57
9.90
7.31
4.63
1.82
-1.04
-3.88
-6.71
-9.66
-12.84
-16.20
-19.52
-22.39
-24.34
-24.97
-24.13
-21.90
-18.65
-14.90
-11.24
-8.15
-5.91
-4.59
-3.97
-3.78
-3.75
-3.73
-3.66
-3.49
-3.09
-2.23
-0.68
1.67
4.66
7.81
10.54
12.32
12.92
12.47
11.39
10.22
9.40
9.09
9.16
9.24
8.87
7.62
5.28
1.90
-2.24
-6.71
-11.02
-14.68
-17.23
-18.24
-17.47
-14.94
-11.10
-6.81
-3.10
-0.77
-0.08
-0.55
-1.20
-1.01
0.64
3.72
7.60
11.43
14.50
16.50
17.45
17.53
16.91
15.61
13.68
11.30
8.86
6.89
5.79
5.65
6.16
6.76
6.88
6.19
4.76
2.98
1.34
0.23
-0.23
-0.23
-0.09
-0.14
-0.54
-1.27
-2.18
-3.11
-3.99
-4.88
-5.88
-7.06
-8.46
-10.04
-11.72
-13.36
-14.75
-15.49
-15.08
-13.07
-9.27
-3.94
2.24
8.37
13.62
17.51
19.92
21.02
21.03
20.15
18.49
16.21
13.62
11.10
9.03
7.55
6.52
5.56
4.22
2.19
-0.56
-3.76
-6.99
-9.80
-11.90
-13.19
-13.80
-13.96
-13.94
-13.95
-14.07
-14.32
-14.61
-14.91
-15.22
-15.63
-16.25
-17.18
-18.40
-19.73
-20.80
-21.15
-20.32
-18.02
-14.29
-9.51
-4.32
0.58
4.62
7.54
9.33
10.18
10.32
9.89
9.04
7.94
6.85
6.07
5.80
6.06
6.61
7.14
7.36
7.16
6.66
6.09
5.66
5.44
5.40
5.40
5.32
5.08
4.64
3.96
2.98
1.61
-0.23
-2.57
-5.31
-8.21
-10.95
-13.14
-14.47
-14.78
-14.06
-12.44
-10.09
-7.28
-4.23
-1.26
1.31
3.18
4.22
4.48
4.23
3.87
3.72
4.01
4.75
5.78
6.83
7.64
8.01
7.83
7.19
6.26
5.29
4.49
3.95
3.55
3.09
2.32
1.08
-0.65
-2.76
-5.11
-7.54
-9.94
-12.16
-14.03
-15.33
-15.84
-15.37
-13.85
-11.29
-7.82
-3.69
0.79
5.26
9.32
12.62
14.91
16.04
16.04
15.07
13.38
11.33
9.27
7.54
6.42
6.08
6.51
7.55
8.88
10.06
10.63
10.24
8.81
6.48
3.69
0.99
-1.14
-2.37
-2.65
-2.15
-1.27
-0.47
-0.19
-0.64
-1.67
-2.75
-3.13
-2.13
0.61
4.90
10.15
15.56
20.42
24.30
27.00
28.55
29.01
28.52
27.34
25.85
24.55
23.87
23.99
24.79
25.93
26.93
27.42
27.22
26.33
24.91
23.18
21.44
19.94
18.89
18.38
18.36
18.57
18.64
18.24
17.12
15.21
12.63
9.59
6.35
3.25
0.56
-1.53
-3.12
-4.67
-6.82
-10.18
-14.94
-20.65
-26.24
-30.38
-31.92
-30.31
-25.79
-19.25
-11.99
-5.24
0.14
3.84
6.09
7.49
8.72
10.16
11.83
13.34
14.07
13.40
10.99
6.86
1.47
-4.42
-9.88
-14.09
-16.48
-16.87
-15.41
-12.51
-8.65
-4.41
-0.39
2.69
4.06
3.07
-0.55
-6.49
-13.87
-21.44
-27.97
-32.56
-34.79
-34.73
-32.80
-29.64
-25.93
-22.34
-19.40
-17.33
-16.03
-15.07
-13.93
-12.14
-9.45
-5.78
-0.99
5.15
12.87
22.12
32.24
42.09
50.36
56.17
59.38
60.45
60.05
58.58
56.13
52.70
48.62
44.71
42.03
41.17
41.78
42.51
41.52
37.56
30.51
21.61
12.78
5.70
1.09
-1.53
-3.43
-6.00
-10.09
-15.89
-22.91
-30.32
-37.10
-42.11
-44.04
-41.74
-34.59
-22.91
-8.24
7.00
20.20
29.36
33.74
34.04
32.21
30.83
32.39
38.63
50.03
65.64
83.20
99.71
112.14
118.16
116.58
107.33
91.33
70.20
46.23
22.38
2.04
-11.53
-16.25
-12.11
-1.56
11.15
21.31
25.61
22.93
14.40
2.26
-11.49
-25.71
-39.84
-53.04
-63.75
-70.21
-71.71
-69.47
-66.64
-66.87
-72.41
-82.82
-95.12
-105.27
-110.13
-108.72
-102.24
-92.89
-82.64
-72.50
-62.63
-53.04
-44.16
-36.89
-32.22
-30.54
-31.36
-33.38
-34.93
-34.77
-32.57
-28.91
-24.89
-21.46
-18.92
-16.84
-14.45
-11.20
-7.23
-3.31
-0.52
0.29
-1.07
-4.03
-7.51
-10.41
-11.96
-12.02
-10.96
-9.39
-7.90
-6.84
-6.30
-6.28
-6.77
-7.77
-9.30
-11.21
-13.21
-14.88
-15.74
-15.50
-14.15
-11.97
-9.44
-7.05
-5.16
-3.91
-3.18
-2.76
-2.44
-2.15
-1.96
-1.97
-2.23
-2.70
-3.24
-3.64
-3.79
-3.55
-2.86
-1.76
-0.46
0.70
1.37
1.35
0.72
-0.27
-1.28
-2.01
-2.38
-2.59
-2.97
-3.79
-5.17
-6.99
-9.15
-11.48
-13.88
-16.30
-18.81
-21.40
-23.83
-25.69
-26.43
-26.03
-24.69
-22.78
-20.86
-19.58
-19.45
-20.53
-22.41
-24.20
-25.64
-26.31
-25.82
-24.31
-22.75
-22.69
-25.26
-31.00
-39.24
-49.85
-61.89
-73.88
-84.16
-91.50
-95.61
-97.26
-99.24
-105.34
-120.75
-147.24
-181.38
-215.28
-239.82
-248.56
-239.81
-217.63
-177.46
-122.62
-61.41
-3.40
45.32
83.14
109.13
127.46
141.84
156.05
172.29
193.16
219.58
249.94
279.35
300.97
309.34
302.23
282.19
253.69
222.25
192.10
165.13
141.25
119.96
102.01
88.62
80.75
76.96
74.48
70.48
63.60
54.31
44.40
36.09
30.55
27.75
26.34
24.87
22.46
19.07
15.21
11.64
9.19
8.23
8.58
9.25
8.89
6.32
1.14
-6.05
-13.82
-20.46
-24.60
-25.63
-23.70
-19.59
-14.45
-9.54
-6.05
-4.88
-6.29
-9.82
-14.31
-18.31
-20.63
-20.83
-19.27
-16.98
-15.04
-14.19
-14.58
-15.87
-17.55
-19.23
-20.78
-22.27
-23.70
-24.95
-25.76
-25.93
-25.53
-24.91
-24.58
-24.91
-25.93
-27.28
-28.38
-28.72
-28.08
-26.54
-24.43
-22.12
-19.95
-18.11
-16.65
-15.53
-14.60
-13.70
-12.72
-11.72
-10.92
-10.64
-11.09
-12.15
-13.39
-14.13
-13.78
-12.06
-9.18
-5.75
-2.43
0.25
2.16
3.51
4.65
5.80
6.93
7.77
7.99
7.42
6.19
4.64
3.14
1.90
0.85
-0.19
-1.39
-2.71
-3.87
-4.56
-4.65
-4.30
-3.94
-4.06
-4.93
-6.47
-8.32
-9.94
-10.94
-11.20
-10.86
-10.27
-9.78
-9.58
-9.76
-10.29
-11.05
-11.92
-12.70
-13.12
-12.88
-11.76
-9.73
-7.07
-4.24
-1.74
0.08
1.18
1.72
1.92
1.86
1.54
0.96
0.19
-0.53
-0.95
-0.95
-0.68
-0.47
-0.66
-1.35
-2.38
-3.42
-4.12
-4.40
-4.34
-4.26
-4.44
-5.06
-6.13
-7.57
-9.20
-10.85
-12.36
-13.59
-14.49
-15.08
-15.52
-16.05
-16.87
-18.06
-19.49
-20.80
-21.54
-21.36
-20.14
-18.01
-15.33
-12.49
-9.79
-7.40
-5.33
-3.55
-1.99
-0.56
0.86
2.35
3.91
5.41
6.65
7.42
7.62
7.27
6.50
5.41
4.07
2.49
0.64
-1.42
-3.59
-5.77
-7.86
-9.87
-11.83
-13.81
-15.82
-17.78
-19.62
-21.26
-22.74
-24.14
-25.62
-27.27
-29.09
-30.97
-32.76
-34.36
-35.71
-36.72
-37.18
-36.70
-34.81
-31.19
-25.92
-19.49
-12.76
-6.52
-1.28
2.96
6.58
10.06
13.69
17.39
20.78
23.40
25.00
25.70
25.96
26.36
27.24
28.65
30.20
31.32
31.48
30.44
28.32
25.53
22.58
20.00
18.13
17.18
17.11
17.63
18.15
17.97
16.41
13.14
8.31
2.48
-3.57
-9.15
-13.96
-18.17
-22.33
-27.12
-33.00
-39.76
-46.36
-50.99
-51.62
-46.72
-36.07
-20.98
-3.96
12.23
25.59
35.63
43.31
50.60
59.59
71.65
87.01
104.68
122.78
139.00
151.23
158.13
159.68
157.31
153.58
151.31
152.72
158.59
168.10
179.25
189.56
196.90
199.75
197.22
188.79
174.16
153.44
127.36
97.56
66.27
35.71
7.24
-19.17
-45.06
-73.20
-106.61
-147.22
-194.70
-245.58
-293.62
-331.15
-351.29
-349.86
-326.33
-283.51
-226.41
-161.00
-93.43
-29.66
24.71
64.78
87.17
90.85
77.71
52.38
21.04
-10.06
-36.15
-54.84
-66.24
-72.28
-75.53
-78.11
-80.98
-83.98
-86.33
-87.39
-87.05
-85.56
-83.23
-80.17
-76.18
-70.79
-63.43
-53.54
-40.83
-25.64
-9.21
6.36
18.61
25.49
26.12
21.19
12.85
4.19
-1.36
-0.83
7.61
23.85
45.42
67.83
85.78
95.09
94.44
86.10
74.92
66.20
63.25
66.04
71.43
74.86
72.49
62.90
47.47
29.61
13.33
1.75
-3.68
-3.21
1.73
9.33
17.80
25.58
31.27
33.81
33.09
30.62
29.51
33.28
43.59
58.16
70.35
71.47
55.28
22.14
-19.75
-57.20
-77.73
-75.36
-52.90
-20.26
10.49
29.88
33.50
21.47
-3.76
-38.93
-79.95
-120.55
-152.08
-165.64
-156.14
-125.69
-83.81
-43.51
-15.50
-3.86
-5.50
-13.53
-22.06
-29.04
-35.66
-43.37
-51.19
-55.59
-53.05
-43.15
-29.64
-18.62
-14.86
-18.96
-27.35
-34.66
-36.59
-32.04
-22.98
-12.87
-4.72
0.17
2.49
4.18
7.02
11.08
14.35
13.71
6.95
-5.38
-19.57
-30.40
-33.96
-29.66
-20.21
-9.68
-0.70
6.79
14.82
25.20
37.60
49.36
57.01
58.36
53.48
44.50
34.09
24.29
16.14
10.10
6.66
6.85
11.81
21.68
34.61
46.81
53.77
52.28
42.33
27.53
13.69
6.10
6.96
14.61
24.69
32.67
36.09
35.13
31.60
27.32
22.91
17.93
11.73
4.38
-3.24
-9.79
-14.23
-16.32
-16.60
-15.97
-15.21
-14.72
-14.46
-14.23
-13.76
-12.94
-11.82
-10.62
-9.59
-8.89
-8.48
-8.04
-7.07
-5.06
-1.77
2.62
7.54
12.27
16.22
19.18
21.22
22.52
23.20
23.18
22.28
20.52
18.23
16.04
14.66
14.51
15.54
17.25
18.99
20.30
21.11
21.72
22.48
23.45
24.17
23.69
20.92
14.97
5.55
-6.98
-21.76
-37.74
-53.98
-69.82
-84.84
-98.69
-110.94
-121.02
-128.05
-130.69
-127.04
-115.01
-93.11
-61.66
-23.48
16.23
51.36
76.81
90.34
93.00
88.21
79.83
70.44
60.68
49.87
37.32
23.36
9.68
-1.44
-8.21
-10.08
-7.94
-3.57
1.23
5.35
8.57
11.29
13.96
16.51
18.33
18.59
16.76
13.10
8.58
4.55
2.05
1.42
2.19
3.38
3.96
3.31
1.32
-1.59
-4.75
-7.47
-9.40
-10.53
-11.27
-12.27
-14.26
-17.77
-23.02
-29.76
-37.32
-44.65
-50.56
-53.92
-54.02
-50.74
-44.59
-36.57
-27.71
-18.79
-10.21
-2.04
5.71
12.85
19.11
24.24
28.16
31.07
33.20
34.53
34.65
32.86
28.47
21.33
12.07
2.03
-6.92
-13.01
-14.92
-12.19
-5.25
4.60
15.53
25.61
33.35
38.19
40.68
42.28
44.67
48.96
55.11
61.89
67.45
70.08
68.99
64.42
57.46
49.47
41.55
34.33
27.91
21.99
16.04
9.49
1.96
-6.57
-15.69
-24.77
-33.29
-41.20
-49.05
-57.74
-67.89
-79.40
-91.13
-101.18
-107.44
-108.11
-102.19
-89.68
-71.75
-50.80
-30.35
-14.35
-5.94
-6.08
-12.63
-20.84
-25.01
-20.89
-7.44
12.89
35.53
55.95
71.43
81.62
87.66
90.95
92.13
91.02
87.28
81.25
74.27
68.21
64.57
63.59
63.98
63.43
59.63
51.34
38.97
24.29
9.73
-2.60
-11.46
-16.61
-18.54
-18.08
-16.19
-13.81
-11.82
-10.82
-10.88
-11.49
-11.68
-10.47
-7.33
-2.40
3.54
9.47
14.43
17.90
19.67
19.88
18.73
16.42
13.10
8.99
4.40
-0.17
-4.06
-6.68
-7.58
-6.69
-4.37
-1.26
1.93
4.66
6.72
8.21
9.29
10.06
10.36
9.96
8.68
6.57
3.97
1.39
-0.76
-2.31
-3.38
-4.28
-5.32
-6.57
-7.84
-8.74
-8.90
-8.06
-6.28
-3.84
-1.16
1.28
3.17
4.31
4.59
3.99
2.43
-0.06
-3.37
-7.17
-10.97
-14.19
-16.36
-17.24
-16.94
-15.89
-14.68
-13.86
-13.77
-14.37
-15.39
-16.50
-17.50
-18.38
-19.23
-19.99
-20.38
-20.01
-18.75
-16.68
-13.92
-10.15
-4.40
4.50
17.17
32.78
48.89
62.23
70.04
71.41
67.54
61.09
54.62
49.58
45.85
42.46
38.51
33.67
28.10
21.75
14.04
4.03
-8.82
-23.95
-39.51
-52.80
-61.45
-64.36
-62.11
-56.48
-49.58
-42.90
-37.04
-31.78
-26.81
-22.12
-18.23
-15.95
-16.01
-18.70
-23.67
-30.07
-36.79
-42.54
-45.93
-45.47
-40.07
-29.73
-16.39
-3.80
3.64
2.87
-6.10
-19.83
-32.95
-40.56
-40.49
-33.96
-24.51
-16.02
-10.87
-9.54
-11.18
-14.73
-19.61
-25.56
-32.26
-38.91
-44.45
-47.98
-49.19
-48.47
-46.75
-45.08
-44.39
-45.05
-46.71
-48.10
-47.28
-42.49
-33.23
-21.05
-9.36
-2.08
-1.71
-7.74
-16.70
-23.68
-24.82
-19.13
-8.73
2.58
11.50
16.73
19.09
20.36
21.83
23.53
24.51
23.75
21.16
17.88
15.79
16.41
20.14
25.89
31.61
35.31
36.15
34.98
34.00
35.62
41.14
49.97
59.77
67.60
71.18
69.81
64.32
56.32
47.40
38.67
30.87
24.64
20.68
19.45
20.72
23.42
25.95
26.92
25.71
22.74
19.04
15.72
13.34
11.79
10.49
8.78
6.16
2.47
-2.28
-7.93
-14.26
-20.93
-27.45
-33.25
-37.71
-40.38
-41.08
-39.88
-37.12
-33.33
-29.08
-24.92
-21.35
-18.68
-16.98
-16.12
-15.80
-15.64
-15.32
-14.67
-13.68
-12.44
-11.16
-10.02
-9.17
-8.71
-8.63
-8.90
-9.30
-9.47
-8.90
-7.11
-3.84
0.79
6.25
11.82
16.81
20.74
23.45
25.03
25.67
25.61
25.07
24.23
23.19
21.83
19.93
17.18
13.38
8.59
3.04
-2.97
-9.30
-15.98
-23.05
-30.33
-37.25
-43.03
-46.99
-48.92
-49.24
-48.85
-48.65
-49.21
-50.44
-51.68
-52.06
-50.87
-47.93
-43.61
-38.77
-34.40
-31.32
-29.87
-29.83
-30.44
-30.63
-29.45
-26.28
-21.07
-14.10
-5.81
3.49
13.54
24.00
34.10
42.74
48.84
51.86
52.33
51.76
52.11
54.95
60.82
69.10
78.20
86.13
90.97
91.33
86.49
76.83
63.75
49.60
36.98
27.97
23.37
22.60
24.12
26.31
28.21
29.93
32.30
36.37
42.73
51.15
60.60
69.55
76.45
80.17
80.31
77.10
71.24
63.55
54.78
45.69
37.09
29.79
24.31
20.44
17.05
12.32
4.45
-7.46
-22.78
-39.44
-54.66
-66.08
-72.65
-74.90
-74.37
-72.82
-71.33
-70.02
-68.40
-65.99
-62.83
-59.52
-56.77
-54.88
-53.44
-51.58
-48.45
-43.71
-37.75
-31.46
-25.83
-21.52
-18.65
-16.83
-15.34
-13.38
-10.29
-5.81
-0.27
5.46
10.24
13.09
13.60
11.94
8.73
4.57
-0.15
-5.21
-10.46
-15.52
-19.85
-22.83
-24.10
-23.71
-22.06
-19.72
-17.11
-14.37
-11.42
-8.04
-4.04
0.68
6.03
11.73
17.29
22.11
25.67
27.71
28.40
28.33
28.36
29.38
31.93
35.99
40.91
45.41
47.99
47.30
42.66
34.43
23.93
13.02
3.45
-3.80
-8.75
-12.28
-15.49
-19.07
-22.93
-26.20
-27.77
-26.80
-23.14
-17.38
-10.56
-3.75
2.14
6.54
9.05
9.38
7.38
3.17
-2.79
-9.56
-15.95
-20.89
-23.71
-24.35
-23.30
-21.28
-18.98
-16.81
-14.84
-12.92
-10.89
-8.74
-6.66
-4.98
-4.00
-3.90
-4.63
-5.95
-7.49
-8.82
-9.64
-9.76
-9.23
-8.16
-6.77
-5.18
-3.44
-1.47
0.74
3.11
5.27
6.76
7.06
5.87
3.27
-0.33
-4.27
-7.90
-10.78
-12.75
-13.90
-14.44
-14.54
-14.30
-13.75
-13.00
-12.36
-12.23
-12.99
-14.74
-17.14
-19.45
-20.75
-20.36
-18.05
-14.18
-9.48
-4.78
-0.71
2.58
5.28
7.91
10.98
14.79
19.22
23.60
26.85
27.72
25.33
19.45
10.72
0.45
-9.76
-18.55
-24.99
-28.71
-29.79
-28.59
-25.56
-21.27
-16.26
-11.09
-6.20
-1.79
2.24
6.28
10.86
16.38
22.97
30.29
37.71
44.41
49.65
52.77
53.27
50.80
45.16
36.58
25.75
13.83
2.16
-8.19
-16.74
-23.75
-29.86
-35.81
-41.95
-48.16
-53.91
-58.63
-61.97
-64.04
-65.33
-66.58
-68.44
-71.20
-74.54
-77.54
-78.86
-77.19
-71.62
-61.99
-48.87
-33.52
-17.53
-2.58
9.99
19.27
24.95
27.33
27.09
25.12
22.28
19.22
16.37
13.94
12.01
10.54
9.40
8.38
7.28
6.03
4.77
3.81
3.53
4.19
5.75
7.94
10.39
12.85
15.32
17.93
20.73
23.50
25.71
26.78
26.37
24.67
22.31
20.08
18.45
17.33
16.17
14.36
11.71
8.75
6.52
6.09
7.93
11.67
16.08
19.61
20.93
19.43
15.33
9.47
3.02
-2.92
-7.51
-10.27
-11.02
-9.88
-7.19
-3.56
0.28
3.49
5.33
5.42
3.84
1.14
-1.84
-4.35
-6.07
-7.20
-8.34
-10.16
-13.05
-16.95
-21.53
-26.38
-31.20
-35.94
-40.62
-45.38
-50.36
-55.75
-61.69
-68.18
-74.92
-81.42
-87.25
-92.46
-97.60
-103.11
-108.57
-112.11
-110.73
-101.59
-83.61
-58.49
-30.46
-4.85
13.77
22.76
21.72
11.77
-5.14
-26.48
-48.99
-68.65
-81.23
-83.42
-74.15
-54.92
-29.19
-0.87
27.04
53.10
77.18
99.62
120.42
138.98
154.39
165.96
173.64
178.07
180.16
180.62
179.64
176.85
171.66
163.77
153.40
141.35
128.64
116.09
104.11
92.69
81.62
70.86
60.70
51.64
44.06
38.10
33.49
29.73
26.34
23.00
19.67
16.49
13.57
10.91
8.35
5.65
2.65
-0.65
-4.01
-7.08
-9.48
-11.04
-11.83
-12.20
-12.62
-13.50
-15.01
-17.01
-19.24
-21.47
-23.66
-25.97
-28.71
-32.04
-35.92
-39.99
-43.76
-46.79
-48.81
-49.82
-50.05
-49.89
-49.69
-49.69
-49.95
-50.33
-50.64
-50.76
-50.70
-50.68
-50.92
-51.58
-52.63
-53.86
-55.03
-55.92
-56.37
-56.22
-55.32
-53.56
-51.11
-48.57
-46.84
-46.79
-48.61
-51.37
-53.18
-51.92
-46.30
-36.70
-25.17
-14.62
-7.55
-5.01
-6.45
-10.25
-14.73
-18.94
-22.88
-27.25
-32.70
-39.42
-47.00
-54.65
-61.51
-66.57
-68.67
-66.45
-58.68
-44.75
-25.20
-1.68
23.54
48.32
71.43
92.66
112.46
131.13
148.23
162.45
172.02
175.52
172.44
163.33
149.57
132.88
114.96
97.30
81.18
67.80
58.23
53.24
53.00
56.84
63.27
70.38
76.35
80.02
81.16
80.41
78.83
77.47
76.85
76.77
76.42
74.73
70.88
64.78
57.15
49.31
42.73
38.54
37.21
38.61
42.05
46.57
51.04
54.37
55.69
54.64
51.62
47.84
45.12
45.24
49.26
56.83
66.06
74.00
77.56
74.34
63.16
44.14
18.56
-11.27
-42.22
-70.64
-93.06
-107.09
-112.21
-110.03
-103.72
-96.83
-91.97
-90.12
-90.65
-92.13
-93.13
-92.72
-90.58
-86.76
-81.48
-75.02
-67.73
-60.10
-52.77
-46.48
-41.94
-39.56
-39.17
-39.98
-40.66
-39.82
-36.38
-30.02
-21.32
-11.44
-1.78
6.58
13.18
18.30
22.77
27.60
33.53
40.66
48.45
55.73
61.25
64.02
63.85
61.50
58.65
57.50
60.22
68.24
81.57
98.41
115.24
127.55
131.20
123.64
104.73
76.49
42.00
3.77
-37.42
-82.57
-133.29
-189.95
-250.30
-309.21
-359.95
-396.04
-413.24
-410.50
-390.05
-356.69
-316.67
-276.34
-240.92
-213.56
-194.81
-182.90
-174.55
-166.16
-154.87
-138.89
-117.40
-89.97
-56.51
-17.58
25.12
68.49
108.60
141.86
166.15
181.34
189.08
191.85
192.12
191.69
191.63
192.50
194.43
197.11
199.57
200.38
198.12
192.08
182.71
171.65
161.07
152.80
147.82
145.97
146.38
147.84
149.18
149.34
147.48
143.01
135.83
126.58
116.74
108.19
102.40
99.48
97.67
93.70
84.11
66.82
42.35
13.89
-13.89
-36.66
-51.94
-59.62
-61.31
-59.12
-54.64
-48.62
-41.45
-33.76
-26.68
-21.49
-19.01
-19.11
-20.77
-22.70
-23.98
-24.43
-24.45
-24.57
-24.93
-25.25
-25.06
-24.15
-22.81
-21.75
-21.70
-23.13
-26.05
-30.22
-35.26
-40.84
-46.59
-52.00
-56.45
-59.31
-60.30
-59.61
-58.02
-56.63
-56.44
-58.02
-61.38
-66.00
-71.16
-76.44
-81.88
-88.02
-95.56
-104.93
-115.93
-127.68
-138.84
-147.97
-153.95
-156.19
-154.89
-150.99
-146.11
-142.04
-140.20
-141.08
-144.10
-147.87
-150.76
-151.56
-149.66
-145.01
-137.67
-127.58
-114.43
-97.98
-78.18
-55.36
-30.21
-3.81
22.39
46.52
66.48
80.28
86.65
85.50
78.02
66.45
53.33
40.82
30.06
21.06
12.84
4.06
-6.43
-19.12
-33.71
-49.04
-63.36
-74.43
-79.69
-76.68
-63.51
-39.59
-6.22
33.28
73.98
110.40
137.81
153.38
156.67
149.55
135.35
117.95
100.87
86.76
77.17
72.56
72.47
75.61
80.15
84.15
86.15
85.77
83.97
82.94
85.26
93.00
106.80
125.50
146.43
166.22
181.92
191.93
196.31
196.41
194.01
190.38
185.75
179.52
170.80
159.14
144.87
128.89
112.18
95.33
78.44
61.25
43.47
24.98
5.86
-13.65
-33.12
-51.82
-68.65
-82.31
-91.76
-96.51
-96.91
-93.91
-88.79
-82.80
-76.89
-71.71
-67.59
-64.63
-62.63
-61.21
-59.84
-58.02
-55.46
-52.08
-48.01
-43.49
-38.84
-34.35
-30.32
-26.97
-24.36
-22.30
-20.42
-18.25
-15.48
-12.14
-8.60
-5.45
-3.16
-1.79
-0.85
0.53
3.13
7.19
11.99
16.04
17.70
16.08
11.79
6.89
4.08
5.35
10.86
18.52
24.93
26.87
22.87
13.97
3.21
-5.66
-9.68
-7.42
0.83
13.42
27.52
39.26
43.58
35.05
9.77
-32.11
-84.79
-137.68
-178.93
-200.22
-200.14
-184.41
-162.45
-142.55
-128.28
-118.15
-108.37
-96.42
-83.14
-72.14
-67.13
-69.39
-76.87
-85.53
-91.63
-93.67
-92.63
-90.96
-90.94
-93.34
-97.09
-99.88
-99.50
-94.83
-86.42
-76.22
-66.68
-59.55
-54.98
-51.42
-46.19
-36.75
-21.71
-1.33
22.62
47.66
71.41
92.23
109.44
123.19
134.05
142.73
149.78
155.55
160.19
163.72
166.13
167.36
167.40
166.28
164.09
161.02
157.29
153.12
148.80
144.76
141.58
140.00
140.67
143.75
148.58
153.61
156.77
156.29
151.44
142.94
132.70
123.10
116.08
112.48
111.86
112.78
113.36
111.84
107.11
99.03
88.34
76.43
64.83
54.54
45.64
37.24
27.90
16.27
1.82
-14.90
-32.46
-49.17
-63.84
-76.20
-86.70
-96.04
-104.42
-111.13
-114.99
-114.90
-110.71
-103.38
-94.73
-86.91
-82.21
-83.24
-92.92
-113.73
-146.22
-187.58
-231.42
-269.39
-294.09
-301.73
-293.23
-273.01
-246.48
-217.78
-189.12
-161.69
-137.16
-118.26
-107.94
-107.66
-116.15
-129.41
-142.15
-149.81
-149.97
-142.46
-128.91
-111.52
-92.25
-72.47
-52.99
-34.50
-17.86
-4.17
5.56
10.99
12.73
12.37
11.81
12.59
15.18
18.87
22.24
23.92
23.09
19.81
14.72
8.75
2.81
-2.14
-5.00
-4.59
0.15
9.83
24.36
42.87
63.88
85.86
107.63
128.62
148.59
167.02
182.67
193.75
198.72
197.24
190.78
182.22
174.76
170.62
170.07
171.45
171.91
168.37
158.41
140.87
116.10
86.04
53.95
23.64
-1.33
-18.68
-27.68
-29.12
-24.61
-16.07
-5.28
6.26
17.23
26.53
33.22
36.70
36.90
34.46
30.80
27.86
27.69
31.70
40.11
51.84
64.85
76.86
86.11
91.73
93.56
91.88
86.91
78.91
68.26
55.94
43.63
33.39
27.22
26.32
30.93
40.57
54.20
70.46
87.99
105.28
120.33
130.64
133.54
127.05
110.96
86.93
57.97
27.50
-1.87
-29.00
-54.00
-77.40
-98.71
-115.32
-123.90
-122.46
-111.87
-96.50
-82.97
-77.39
-83.26
-99.41
-119.40
-135.64
-142.44
-137.08
-120.04
-94.26
-63.99
-35.19
-13.42
-0.60
2.11
-5.89
-22.50
-43.26
-62.79
-76.89
-86.45
-95.58
-105.87
-119.37
-137.41
-156.93
-171.81
-176.08
-167.46
-151.82
-138.93
-133.23
-137.24
-151.57
-172.36
-194.08
-212.62
-209.89
-176.53
-142.92
-125.90
-121.94
-128.79
-141.70
-154.10
-158.85
-149.99
-127.17
-93.49
-49.44
1.38
52.13
97.47
134.05
160.18
175.35
177.83
167.35
149.67
130.89
114.93
104.91
102.13
105.79
113.46
120.56
123.04
120.98
115.38
107.01
97.36
87.96
79.82
73.16
66.92
59.85
52.36
45.05
38.29
32.80
29.26
27.93
28.39
29.34
29.17
27.04
22.68
16.48
9.65
3.70
-0.13
-1.39
-0.60
0.98
1.86
0.78
-2.99
-9.42
-17.72
-26.15
-32.28
-33.64
-28.73
-18.14
-4.82
6.77
12.30
9.48
-1.05
-16.03
-31.19
-42.92
-49.48
-50.97
-48.57
-43.51
-36.46
-27.59
-17.02
-5.43
5.73
14.40
18.48
16.74
9.43
-1.59
-13.49
-23.63
-30.68
-35.06
-38.60
-43.33
-50.45
-59.74
-69.72
-78.11
-82.11
-78.55
-64.32
-37.43
1.36
47.43
92.67
127.80
145.77
144.62
128.16
104.12
80.66
63.38
53.99
51.16
52.41
55.70
59.87
64.05
66.99
67.07
62.98
54.78
44.36
34.97
29.96
31.19
38.00
47.17
53.91
53.60
43.37
22.96
-5.42
-37.97
-70.31
-98.23
-118.23
-128.26
-128.46
-121.65
-112.62
-106.29
-105.51
-109.59
-114.64
-115.75
-109.69
-96.58
-79.51
-62.49
-48.18
-36.68
-26.15
-14.41
-0.41
15.40
31.68
47.20
61.33
74.06
85.49
95.52
103.72
109.44
112.10
111.40
107.59
101.54
94.61
88.11
82.54
77.25
70.63
61.16
48.54
34.32
21.56
13.46
11.93
16.71
25.55
35.23
42.78
46.16
44.42
37.44
25.71
10.46
-6.35
-22.11
-34.16
-40.61
-41.05
-36.71
-30.12
-24.25
-21.63
-23.83
-31.32
-43.65
-59.45
-76.45
-91.69
-102.33
-106.88
-106.02
-102.39
-99.21
-98.41
-99.44
-99.61
-95.84
-86.53
-72.60
-56.79
-42.05
-29.87
-19.93
-10.74
-1.02
9.52
20.26
30.41
39.74
48.68
58.06
68.54
80.17
92.25
103.50
112.56
118.68
121.98
123.48
124.35
125.07
124.92
122.29
115.70
104.95
91.50
77.88
66.27
57.30
49.68
41.11
29.62
14.81
-2.08
-19.03
-34.49
-48.11
-60.67
-73.24
-86.25
-98.94
-109.57
-116.07
-116.89
-111.68
-101.45
-88.33
-74.99
-64.03
-57.28
-55.58
-58.56
-64.58
-70.71
-73.02
-67.50
-51.67
-26.23
4.26
32.37
50.68
55.02
46.67
31.97
19.48
16.11
24.16
40.88
60.23
75.98
84.12
83.97
77.60
68.41
59.86
54.52
53.50
56.19
60.45
62.72
58.78
45.06
20.20
-13.72
-51.11
-84.14
-105.15
-109.25
-96.01
-69.56
-36.82
-5.12
20.05
35.94
42.23
40.03
30.95
16.67
-0.94
-19.73
-37.42
-52.11
-62.83
-69.74
-73.86
-76.60
-79.03
-81.40
-83.09
-82.99
-80.03
-73.72
-64.36
-52.94
-40.55
-27.84
-14.92
-1.45
12.81
27.84
43.25
58.44
72.70
85.18
94.74
100.06
100.00
94.29
84.03
71.68
60.45
53.16
51.28
54.45
60.86
68.12
74.22
78.25
80.55
82.43
85.39
90.53
98.04
107.10
116.16
123.23
126.24
123.32
113.20
95.69
72.14
45.56
19.82
-1.53
-16.72
-26.60
-34.14
-42.81
-54.79
-69.75
-85.28
-98.39
-107.21
-111.84
-113.84
-114.90
-115.51
-114.79
-111.08
-103.25
-91.33
-76.43
-60.09
-43.56
-27.67
-13.18
-1.09
7.38
11.32
10.58
6.06
-0.79
-8.51
-15.96
-22.42
-27.03
-28.42
-24.86
-15.09
0.58
19.64
37.67
50.05
53.73
48.63
37.45
24.17
11.99
1.97
-6.97
-16.91
-29.88
-47.47
-70.75
-100.13
-134.50
-169.86
-198.83
-212.16
-202.14
-166.56
-110.88
-46.82
12.25
56.82
84.85
101.38
114.62
130.84
150.95
170.30
181.65
179.06
160.91
130.52
94.33
58.88
28.24
3.39
-16.78
-33.73
-48.29
-60.76
-71.89
-83.79
-99.40
-120.69
-146.89
-173.89
-195.66
-206.83
-205.21
-192.36
-172.06
-147.89
-121.51
-92.52
-59.79
-23.10
15.96
54.04
86.69
109.03
116.88
108.18
84.43
52.01
21.62
5.70
14.06
49.37
104.89
165.66
213.44
233.75
221.73
184.39
138.33
103.71
96.95
125.09
183.90
260.42
338.15
402.59
445.10
463.75
461.43
443.25
414.21
378.33
338.78
298.44
260.06
225.54
195.07
166.66
136.62
101.25
58.70
9.98
-41.55
-92.03
-138.95
-182.37
-224.26
-266.76
-310.28
-352.55
-389.14
-415.03
-426.78
-423.71
-408.23
-385.00
-359.60
-337.14
-321.18
-312.87
-310.48
-309.50
-303.98
-289.11
-263.80
-231.98
-201.28
-179.52
-170.86
-173.59
-181.19
-185.83
-182.27
-169.75
-151.03
-129.55
-106.85
-82.10
-53.63
-21.02
13.87
47.72
77.80
103.37
125.42
145.28
162.97
176.64
183.54
181.67
171.06
153.89
133.34
112.16
91.71
71.93
52.01
31.32
9.91
-11.45
-31.61
-49.36
-63.56
-73.35
-78.32
-78.56
-74.43
-66.14
-53.41
-35.73
-13.12
13.01
39.55
62.29
77.38
82.99
80.02
71.60
61.50
52.40
44.89
37.84
29.46
18.48
4.74
-10.94
-27.05
-41.50
-51.61
-54.28
-46.83
-28.33
-0.67
31.13
60.12
79.63
85.40
76.93
57.25
31.51
5.04
-18.16
-36.18
-49.02
-57.76
-63.70
-67.70
-70.01
-70.37
-68.63
-64.99
-60.13
-54.90
-49.91
-45.43
-41.47
-38.08
-35.56
-34.41
-34.99
-37.21
-40.53
-44.02
-46.74
-48.00
-47.63
-45.90
-43.56
-41.50
-40.48
-40.96
-42.97
-46.28
-50.46
-55.02
-59.27
-62.29
-63.00
-60.41
-54.09
-44.37
-32.34
-19.36
-6.57
5.55
17.22
29.36
43.44
61.49
85.73
117.75
157.34
201.60
244.89
280.33
302.08
307.46
297.51
276.12
247.49
214.65
178.98
141.08
102.15
64.87
32.93
9.71
-2.74
-4.00
4.95
22.04
44.00
66.04
82.09
85.87
72.68
41.08
-6.59
-64.91
-127.08
-186.65
-238.36
-278.42
-304.67
-316.57
-315.54
-304.64
-287.84
-268.65
-249.17
-229.79
-209.98
-188.80
-165.17
-137.81
-105.47
-67.58
-25.50
16.55
51.60
71.58
69.99
44.51
-1.61
-59.89
-118.55
-165.31
-190.40
-188.81
-161.22
-113.28
-53.73
8.09
64.38
110.30
144.26
167.47
182.93
194.14
203.91
213.58
222.84
230.37
235.05
236.94
237.32
237.92
239.46
240.83
239.50
232.80
219.71
201.61
181.80
164.28
152.27
147.28
148.93
155.45
164.27
172.17
175.49
170.79
156.03
131.90
102.22
72.95
50.03
36.97
33.67
37.01
42.60
47.05
49.01
48.98
48.26
47.72
47.18
45.54
41.22
32.76
19.37
1.56
-18.63
-37.84
-52.42
-59.86
-59.66
-53.51
-44.26
-34.68
-26.58
-20.77
-17.76
-18.43
-24.24
-36.82
-57.29
-85.66
-120.55
-159.27
-198.27
-233.74
-262.51
-282.92
-295.29
-301.52
-303.99
-304.11
-301.65
-295.26
-283.78
-267.54
-248.51
-229.19
-210.87
-192.58
-171.52
-144.81
-111.44
-73.23
-34.21
1.30
30.64
53.76
72.89
91.21
111.31
134.12
158.47
180.95
196.53
199.85
187.05
157.72
115.82
69.00
26.37
-4.42
-19.50
-19.54
-8.63
7.73
24.70
39.25
50.12
57.24
60.88
61.29
58.71
53.50
46.41
38.64
31.61
26.51
23.88
23.20
23.15
22.31
19.90
16.22
12.56
10.49
10.99
13.96
18.14
21.74
23.22
21.92
18.22
13.27
8.38
4.43
1.71
-0.13
-1.72
-3.59
-6.01
-8.82
-11.56
-13.67
-14.65
-14.32
-12.78
-10.43
-7.74
-5.11
-2.76
-0.68
1.19
2.87
4.20
4.89
4.69
3.53
1.60
-0.75
-3.14
-5.35
-7.37
-9.33
-11.38
-13.51
-15.49
-17.04
-17.89
-18.03
-17.59
-16.86
-16.06
-15.29
-14.49
-13.60
-12.59
-11.57
-10.77
-10.38
-10.48
-10.95
-11.50
-11.77
-11.45
-10.44
-8.80
-6.78
-4.64
-2.61
-0.84
0.61
1.65
2.11
1.79
0.56
-1.51
-4.07
-6.52
-8.26
-8.83
-8.19
-6.64
-4.64
-2.64
-0.87
0.62
1.89
2.94
3.65
3.84
3.35
2.26
0.85
-0.44
-1.20
-1.23
-0.66
0.16
0.78
0.81
0.09
-1.31
-3.12
-5.01
-6.64
-7.75
-8.20
-7.93
-7.02
-5.64
-4.07
-2.62
-1.59
-1.15
-1.31
-1.91
-2.63
-3.16
-3.24
-2.86
-2.21
-1.64
-1.52
-2.04
-3.10
-4.33
-5.31
-5.67
-5.31
-4.40
-3.27
-2.25
-1.55
-1.26
-1.29
-1.54
-1.92
-2.38
-2.87
-3.33
-3.70
-3.96
-4.19
-4.48
-5.01
-5.81
-6.74
-7.51
-7.71
-7.07
-5.51
-3.27
-0.74
1.67
3.71
5.27
6.41
7.16
7.55
7.59
7.26
6.67
5.96
5.31
4.85
4.61
4.54
4.54
4.54
4.48
4.35
4.19
4.05
3.95
3.88
3.78
3.55
3.10
2.40
1.46
0.37
-0.73
-1.77
-2.69
-3.50
-4.24
-4.93
-5.61
-6.23
-6.75
-7.13
-7.33
-7.36
-7.19
-6.82
-6.23
-5.34
-4.09
-2.46
-0.51
1.60
3.64
5.45
6.88
7.88
8.43
8.52
8.11
7.27
6.10
4.85
3.83
3.21
3.07
3.27
3.60
3.87
3.97
3.89
3.64
3.17
2.39
1.23
-0.23
-1.79
-3.17
-4.14
-4.66
-4.90
-5.15
-5.71
-6.70
-8.05
-9.56
-11.00
-12.32
-13.64
-15.16
-17.06
-19.32
-21.64
-23.47
-24.28
-23.71
-21.86
-19.30
-16.95
-15.70
-16.11
-18.11
-21.16
-24.43
-27.30
-29.65
-31.94
-35.01
-39.83
-47.18
-57.35
-69.85
-83.12
-94.33
-99.81
-95.94
-80.56
-54.07
-19.77
17.11
51.05
77.97
96.15
105.92
108.84
106.63
100.65
91.85
81.12
69.45
57.91
47.50
38.89
32.68
29.33
29.24
32.46
38.60
46.76
55.69
64.01
70.26
73.44
73.19
69.71
63.69
56.02
47.62
39.17
30.96
22.40
12.95
2.32
-9.34
-21.62
-33.98
-45.82
-56.60
-65.97
-74.55
-82.78
-90.84
-98.77
-106.67
-114.71
-122.76
-129.95
-134.67
-135.87
-132.10
-122.25
-106.16
-84.83
-59.93
-32.80
-3.95
30.82
70.54
109.72
140.77
159.03
164.96
162.42
155.72
147.31
137.87
124.86
107.39
87.51
69.59
58.30
56.60
64.78
80.65
102.02
124.50
144.28
158.61
165.90
165.18
156.12
139.48
117.01
90.97
62.46
32.07
0.01
-32.99
-65.23
-94.30
-117.98
-135.47
-147.65
-156.61
-163.26
-166.41
-163.37
-152.13
-133.21
-110.01
-87.16
-67.93
-52.63
-38.65
-22.72
-3.32
18.13
38.04
52.68
60.00
60.41
55.86
48.67
40.54
32.34
24.37
16.63
8.99
0.97
-7.84
-17.50
-27.16
-35.17
-39.73
-39.98
-36.69
-32.26
-29.81
-31.88
-39.39
-51.15
-64.26
-75.27
-81.48
-81.75
-76.83
-68.95
-60.95
-55.42
-53.91
-56.64
-62.55
-69.77
-76.07
-79.65
-79.70
-76.55
-71.50
-66.18
-61.67
-58.11
-54.81
-50.78
-45.56
-39.35
-32.67
-25.71
-17.93
-8.45
3.06
15.63
27.00
34.53
36.59
33.55
27.78
22.60
20.77
23.31
29.26
36.46
42.77
47.05
49.41
50.76
51.95
53.19
53.97
53.45
51.01
46.62
40.89
34.75
29.02
24.23
20.49
17.71
15.74
14.48
13.83
13.51
12.95
11.40
8.19
3.17
-2.98
-8.75
-12.27
-11.98
-7.38
0.73
10.51
19.67
26.28
29.16
28.07
23.53
16.51
8.20
-0.17
-7.46
-12.82
-15.87
-16.85
-16.62
-16.43
-17.40
-20.04
-23.91
-27.76
-30.05
-29.72
-26.71
-22.01
-17.17
-13.55
-11.69
-11.25
-11.39
-11.29
-10.64
-9.58
-8.44
-7.39
-6.22
-4.46
-1.70
2.13
6.61
10.94
14.24
15.90
15.80
14.25
11.82
9.05
6.22
3.39
0.49
-2.55
-5.69
-8.81
-11.75
-14.29
-16.19
-17.15
-16.94
-15.48
-13.04
-10.00
-6.77
-3.45
0.21
4.66
10.23
16.69
23.19
28.44
31.26
31.04
28.13
23.74
19.36
16.21
14.65
14.24
14.04
13.32
11.89
10.20
8.94
8.53
8.86
9.32
9.21
8.15
6.33
4.29
2.55
1.42
0.76
0.21
-0.63
-2.04
-4.14
-6.93
-10.30
-14.02
-17.69
-20.83
-22.98
-23.83
-23.35
-21.68
-19.06
-15.66
-11.62
-7.06
-2.17
2.76
7.41
11.59
15.21
18.31
20.94
23.06
24.63
25.53
25.82
25.67
25.40
25.30
25.55
26.03
26.43
26.36
25.50
23.74
21.24
18.26
15.06
11.88
8.78
5.80
2.97
0.40
-1.81
-3.60
-5.05
-6.38
-7.92
-9.95
-12.65
-15.95
-19.63
-23.38
-26.92
-30.10
-32.80
-34.99
-36.46
-37.02
-36.41
-34.51
-31.35
-27.13
-22.01
-16.07
-9.37
-2.03
5.51
12.52
18.13
21.73
23.24
23.15
22.34
21.64
21.49
21.87
22.40
22.70
22.58
22.13
21.57
21.16
20.91
20.69
20.30
19.62
18.66
17.54
16.48
15.56
14.77
13.92
12.86
11.48
9.83
8.10
6.46
5.07
3.90
2.82
1.62
0.14
-1.73
-4.02
-6.67
-9.67
-13.01
-16.73
-20.83
-25.18
-29.38
-32.84
-34.93
-35.14
-33.37
-29.92
-25.41
-20.52
-15.78
-11.44
-7.49
-3.81
-0.20
3.46
7.22
10.98
14.62
17.95
20.81
23.07
24.68
25.61
25.86
25.56
24.90
24.18
23.68
23.53
23.69
23.89
23.87
23.48
22.79
21.95
21.10
20.24
19.27
18.10
16.75
15.36
14.03
12.77
11.41
9.72
7.53
4.84
1.84
-1.24
-4.15
-6.81
-9.19
-11.37
-13.42
-15.43
-17.54
-19.87
-22.56
-25.63
-28.90
-32.02
-34.50
-35.85
-35.74
-34.04
-30.86
-26.55
-21.54
-16.32
-11.34
-6.92
-3.24
-0.27
2.20
4.51
6.99
9.84
13.00
16.19
18.95
20.85
21.70
21.64
21.13
20.74
20.90
21.76
23.13
24.62
25.86
26.62
26.87
26.74
26.36
25.82
25.11
24.16
22.95
21.48
19.87
18.24
16.72
15.41
14.38
13.67
13.28
13.07
12.81
12.19
10.93
8.98
6.55
4.00
1.62
-0.52
-2.61
-4.95
-7.78
-11.14
-14.87
-18.72
-22.43
-25.76
-28.45
-30.15
-30.51
-29.33
-26.67
-22.86
-18.42
-13.87
-9.61
-5.79
-2.43
0.59
3.42
6.18
8.87
11.39
13.51
15.05
15.96
16.40
16.75
17.34
18.38
19.78
21.18
22.23
22.68
22.55
22.05
21.44
20.90
20.47
20.04
19.48
18.71
17.71
16.51
15.18
13.74
12.27
10.80
9.37
7.97
6.56
5.04
3.31
1.36
-0.72
-2.78
-4.65
-6.29
-7.77
-9.25
-10.90
-12.85
-15.15
-17.78
-20.71
-23.86
-27.04
-29.91
-31.96
-32.68
-31.70
-28.97
-24.82
-19.85
-14.75
-10.06
-6.04
-2.66
0.28
3.01
5.62
8.09
10.27
12.03
13.33
14.26
14.97
15.59
16.17
16.66
16.91
16.74
15.95
14.40
12.10
9.26
6.37
4.14
3.29
4.31
7.27
11.70
16.78
21.64
25.57
28.11
29.14
28.64
26.76
23.74
19.97
15.96
12.16
8.88
6.10
3.60
1.04
-1.79
-4.94
-8.24
-11.46
-14.47
-17.23
-19.89
-22.61
-25.47
-28.37
-30.97
-32.77
-33.32
-32.39
-30.09
-26.80
-22.99
-19.06
-15.22
-11.51
-7.90
-4.41
-1.12
1.93
4.69
7.18
9.36
11.09
12.14
12.29
11.48
9.99
8.34
7.11
6.79
7.47
8.91
10.65
12.18
13.24
13.82
14.09
14.32
14.67
15.09
15.40
15.32
14.68
13.49
11.91
10.24
8.70
7.36
6.14
4.83
3.32
1.58
-0.20
-1.78
-3.06
-4.09
-5.15
-6.61
-8.75
-11.61
-15.02
-18.57
-21.80
-24.32
-25.84
-26.24
-25.50
-23.70
-21.01
-17.73
-14.17
-10.68
-7.52
-4.81
-2.51
-0.43
1.61
3.77
6.03
8.24
10.17
11.58
12.37
12.58
12.40
12.06
11.77
11.63
11.68
11.94
12.42
13.18
14.18
15.34
16.43
17.24
17.61
17.50
17.05
16.44
15.85
15.37
15.02
14.73
14.40
13.93
13.17
12.03
10.46
8.50
6.27
3.93
1.63
-0.56
-2.59
-4.53
-6.42
-8.38
-10.51
-12.90
-15.52
-18.19
-20.59
-22.27
-22.88
-22.21
-20.35
-17.60
-14.41
-11.18
-8.21
-5.60
-3.34
-1.33
0.51
2.22
3.78
5.15
6.32
7.32
8.25
9.24
10.35
11.57
12.74
13.65
14.15
14.21
13.97
13.62
13.35
13.25
13.30
13.39
13.38
13.19
12.79
12.25
11.62
11.00
10.46
10.03
9.69
9.33
8.82
7.99
6.83
5.38
3.80
2.21
0.69
-0.81
-2.32
-3.87
-5.41
-6.86
-8.17
-9.40
-10.72
-12.35
-14.43
-16.92
-19.54
-21.84
-23.30
-23.54
-22.41
-20.10
-17.05
-13.76
-10.61
-7.77
-5.16
-2.62
-0.06
2.52
4.99
7.23
9.20
10.97
12.67
14.43
16.22
17.87
19.15
19.87
19.98
19.67
19.14
18.44
17.39
15.74
13.48
11.18
9.94
10.92
14.75
21.10
28.79
36.27
42.32
46.43
48.61
48.94
47.20
42.96
36.04
27.05
17.45
9.09
3.38
0.54
-0.42
-1.19
-3.26
-7.16
-12.35
-17.63
-21.86
-24.47
-25.63
-25.92
-25.83
-25.53
-24.86
-23.63
-21.84
-19.85
-18.17
-17.24
-17.21
-17.87
-18.85
-19.69
-20.06
-19.80
-18.96
-17.71
-16.31
-15.00
-13.90
-12.99
-12.10
-11.05
-9.82
-8.49
-7.30
-6.43
-5.94
-5.73
-5.62
-5.51
-5.52
-5.88
-6.90
-8.75
-11.36
-14.33
-16.99
-18.59
-18.49
-16.37
-12.31
-6.86
-0.86
4.88
9.76
13.59
16.52
18.83
20.67
21.90
22.15
21.01
18.23
13.89
8.36
2.20
-4.01
-9.83
-15.03
-19.54
-23.39
-26.54
-28.81
-29.86
-29.43
-27.50
-24.42
-20.79
-17.23
-14.03
-11.04
-7.81
-3.93
0.62
5.37
9.59
12.62
14.20
14.57
14.22
13.69
13.21
12.82
12.39
11.82
11.17
10.61
10.28
10.22
10.26
10.15
9.71
8.91
7.91
6.96
6.26
5.88
5.75
5.70
5.60
5.37
5.03
4.58
4.05
3.47
2.85
2.21
1.52
0.73
-0.25
-1.50
-2.98
-4.62
-6.29
-7.93
-9.57
-11.26
-13.06
-14.87
-16.50
-17.64
-18.06
-17.65
-16.49
-14.83
-12.95
-11.09
-9.34
-7.69
-6.07
-4.46
-2.88
-1.48
-0.42
0.20
0.45
0.57
0.86
1.59
2.81
4.36
5.93
7.21
8.04
8.49
8.78
9.09
9.48
9.79
9.78
9.26
8.24
6.93
5.66
4.72
4.23
4.14
4.23
4.24
4.00
3.44
2.66
1.82
1.08
0.54
0.17
-0.19
-0.73
-1.61
-2.82
-4.15
-5.33
-6.12
-6.50
-6.66
-6.94
-7.73
-9.28
-11.69
-14.78
-18.20
-21.37
-23.54
-23.93
-21.97
-17.49
-10.96
-3.41
3.82
9.53
12.99
14.18
13.64
12.15
10.45
9.01
8.00
7.41
7.14
7.13
7.23
7.26
7.03
6.36
5.29
3.98
2.79
2.04
1.92
2.40
3.27
4.21
4.92
5.18
4.89
4.13
3.08
2.01
1.16
0.68
0.56
0.64
0.71
0.61
0.31
-0.13
-0.61
-1.03
-1.41
-1.79
-2.29
-2.93
-3.75
-4.67
-5.61
-6.45
-7.13
-7.67
-8.17
-8.78
-9.65
-10.85
-12.31
-13.71
-14.65
-14.74
-13.84
-12.08
-9.93
-7.89
-6.37
-5.44
-4.88
-4.36
-3.61
-2.62
-1.56
-0.70
-0.27
-0.37
-1.04
-2.18
-3.58
-4.80
-5.14
-3.88
-0.56
4.66
11.04
17.41
22.67
26.14
27.69
27.60
26.31
24.15
21.36
18.19
14.87
11.76
9.08
6.88
5.01
3.24
1.40
-0.58
-2.61
-4.63
-6.53
-8.33
-10.05
-11.69
-13.25
-14.68
-15.92
-16.94
-17.78
-18.59
-19.52
-20.74
-22.25
-23.93
-25.51
-26.77
-27.70
-28.44
-29.14
-29.83
-30.31
-30.47
-30.52
-31.12
-33.17
-37.20
-42.98
-49.38
-54.80
-57.79
-57.49
-53.67
-46.47
-36.00
