1590429349.00
64.000000
-0.00
-0.00
-0.00
-0.00
-0.00
-0.00
-0.00
-0.00
-0.00
-0.00
0.00
0.01
0.01
-0.00
-0.03
-0.05
-0.05
0.00
0.13
0.36
0.66
1.01
1.37
1.72
2.06
2.40
2.79
3.24
3.80
4.42
5.06
5.66
6.20
6.68
7.15
7.68
8.31
9.14
10.09
11.04
11.88
12.56
13.14
13.76
14.65
15.96
17.91
20.32
22.90
25.38
27.58
29.57
31.68
34.32
37.81
42.54
48.15
54.10
59.83
64.97
69.58
74.14
79.34
85.71
93.76
103.00
112.62
121.73
129.77
136.75
143.30
150.75
157.77
166.64
177.95
191.79
206.97
220.57
228.25
225.36
208.53
176.87
132.76
80.05
23.07
-34.94
-92.44
-149.16
-205.23
-260.37
-313.74
-363.87
-409.83
-450.91
-486.50
-515.74
-537.23
-549.22
-549.96
-538.37
-514.21
-478.67
-433.88
-382.45
-327.02
-269.84
-212.63
-156.66
-102.95
-52.37
-5.90
35.58
71.43
101.35
125.50
144.38
158.69
169.15
176.37
180.75
182.57
182.07
179.51
175.23
169.65
163.18
156.15
148.81
141.30
133.69
126.02
118.33
110.69
103.16
95.80
88.68
81.83
75.25
68.95
62.95
57.25
51.86
46.78
42.03
37.59
33.45
29.61
26.07
22.81
19.83
17.11
14.67
12.48
10.54
8.83
7.35
6.07
4.97
4.05
3.27
2.62
2.09
1.65
1.30
1.01
0.79
0.61
0.47
0.37
0.29
0.23
0.19
0.16
0.14
0.14
0.15
0.16
0.18
0.21
0.24
0.28
0.32
0.36
0.41
0.45
0.50
0.55
0.60
0.65
0.71
0.77
0.84
0.91
0.98
1.07
1.17
1.27
1.39
1.53
1.68
1.85
2.03
2.25
2.48
2.73
3.01
3.33
3.67
4.05
4.45
4.90
5.38
5.90
6.46
7.06
7.70
8.38
9.11
9.89
10.71
11.58
12.49
13.45
14.46
15.54
16.69
17.90
19.15
20.45
21.72
22.93
23.97
24.74
25.11
24.96
24.20
22.74
20.57
17.68
14.16
10.05
5.56
0.85
-3.86
-8.32
-12.33
-15.71
-18.34
-20.20
-21.33
-21.80
-21.72
-21.23
-20.38
-19.27
-17.95
-16.47
-14.94
-13.43
-12.00
-10.75
-9.68
-8.71
-7.73
-6.64
-5.41
-4.10
-2.82
-1.66
-0.85
-0.39
-0.10
0.27
0.95
2.03
3.37
4.71
5.80
6.19
5.83
5.00
4.19
3.84
4.10
4.80
5.47
5.73
4.78
2.51
-0.65
-4.05
-6.98
-9.12
-10.52
-11.60
-12.98
-16.18
-22.43
-32.37
-45.68
-60.83
-75.34
-86.67
-93.48
-91.39
-80.80
-64.68
-47.13
-31.77
-20.42
-13.01
-8.25
-4.71
-1.51
0.76
1.57
0.82
-1.09
-3.50
-5.95
-8.19
-10.03
-11.00
-10.84
-8.83
-4.41
2.48
11.13
20.33
28.78
35.52
40.14
42.36
42.32
40.42
37.20
33.28
29.30
25.72
22.83
20.60
18.68
16.74
14.56
12.18
9.73
7.45
5.48
3.91
2.67
1.56
0.26
-1.53
-4.04
-7.43
-11.71
-16.77
-22.30
-27.75
-32.36
-35.22
-35.55
-32.91
-27.42
-19.71
-10.82
-1.82
6.41
13.27
18.47
21.85
23.39
23.16
21.43
18.70
15.61
12.79
10.69
9.47
9.04
9.08
9.25
9.20
8.73
7.73
6.24
4.36
2.25
0.07
-2.12
-4.42
-7.08
-10.39
-14.57
-19.59
-25.10
-30.47
-34.83
-37.26
-37.03
-33.78
-27.64
-19.31
-9.80
-0.25
8.40
15.56
21.03
24.88
27.23
28.20
27.89
26.49
24.37
21.99
19.81
18.14
17.08
16.52
16.29
16.13
15.86
15.30
14.28
12.71
10.59
8.00
5.11
2.07
-1.00
-4.16
-7.52
-11.28
-15.42
-19.73
-23.61
-26.22
-26.71
-24.47
-19.41
-12.04
-3.36
5.41
13.24
19.47
23.95
26.87
28.60
29.45
29.59
29.06
27.93
26.30
24.40
22.51
20.80
19.39
18.23
17.26
16.37
15.45
14.39
12.94
10.90
8.08
4.51
0.43
-3.74
-7.59
-10.93
-13.84
-16.67
-19.88
-23.84
-28.61
-33.81
-38.60
-41.83
-42.48
-39.84
-34.00
-25.69
-16.15
-6.64
1.96
9.31
15.48
20.65
24.90
28.05
29.91
30.43
29.85
28.70
27.52
26.68
26.17
25.72
24.95
23.64
21.81
19.69
17.62
15.82
14.30
12.85
11.18
9.03
6.33
3.18
-0.15
-3.38
-6.30
-8.82
-11.03
-13.20
-15.59
-18.49
-22.00
-26.10
-30.61
-35.24
-39.60
-43.16
-45.19
-44.97
-41.96
-36.10
-27.93
-18.52
-9.05
-0.50
6.66
12.41
16.96
20.52
23.14
24.82
25.66
25.96
26.09
26.43
27.09
27.93
28.62
28.86
28.52
27.64
26.45
25.18
24.01
22.92
21.80
20.43
18.60
16.23
13.34
10.17
6.99
4.12
1.72
-0.23
-1.96
-3.78
-5.96
-8.55
-11.39
-14.18
-16.68
-18.79
-20.68
-22.60
-24.86
-27.67
-31.12
-35.20
-39.71
-44.25
-48.14
-50.52
-50.52
-47.58
-41.68
-33.37
-23.66
-13.68
-4.40
3.65
10.30
15.76
20.30
24.18
27.46
30.09
31.95
32.96
33.24
32.97
32.40
31.70
30.89
29.89
28.68
27.37
26.13
25.14
24.37
23.57
22.39
20.53
18.01
15.11
12.33
10.10
8.56
7.55
6.63
5.42
3.71
1.56
-0.77
-3.03
-5.13
-7.20
-9.50
-12.24
-15.43
-18.85
-22.09
-24.79
-26.85
-28.49
-30.17
-32.38
-35.39
-39.08
-43.04
-46.60
-49.11
-49.98
-48.91
-45.75
-40.60
-33.74
-25.59
-16.74
-7.88
0.35
7.45
13.17
17.51
20.69
23.02
24.77
26.07
26.96
27.41
27.41
27.08
26.56
25.95
25.27
24.49
23.55
22.47
21.28
20.10
18.98
17.86
16.69
15.31
13.64
11.63
9.33
6.88
4.45
2.24
0.34
-1.31
-2.92
-4.77
-7.01
-9.58
-12.24
-14.72
-16.86
-18.74
-20.54
-22.43
-24.43
-26.44
-28.40
-30.36
-32.52
-35.00
-37.67
-39.99
-41.10
-40.15
-36.52
-30.10
-21.26
-10.76
0.43
11.35
21.19
29.39
35.70
40.20
43.24
45.24
46.63
47.63
48.33
48.74
48.87
48.77
48.50
48.07
47.38
46.30
44.82
43.07
41.35
40.02
39.32
39.25
39.54
39.75
39.45
38.18
35.52
31.00
24.12
14.55
2.39
-11.60
-26.04
-39.18
-49.47
-56.04
-59.02
-59.48
-59.01
-59.16
-60.84
-64.11
-68.21
-72.00
-74.31
-74.33
-71.73
-66.56
-59.13
-49.86
-39.32
-28.16
-17.22
-7.31
0.86
7.01
11.27
14.18
16.43
18.60
20.96
23.41
25.61
27.13
27.73
27.48
26.69
25.81
25.13
24.68
24.20
23.34
21.82
19.63
17.03
14.39
12.06
10.15
8.51
6.82
4.72
2.02
-1.24
-4.79
-8.19
-11.04
-13.10
-14.41
-15.34
-16.50
-18.50
-21.73
-26.10
-31.02
-35.53
-38.56
-39.27
-37.18
-32.18
-24.42
-14.20
-1.88
11.99
26.60
40.81
53.29
62.76
68.20
69.19
65.86
58.94
49.61
39.26
29.24
20.60
13.89
9.12
5.80
3.27
1.03
-1.08
-2.89
-4.11
-4.70
-5.03
-5.76
-7.55
-10.64
-14.69
-18.83
-22.18
-24.21
-25.03
-25.24
-25.57
-26.43
-27.78
-29.23
-30.35
-31.06
-31.63
-32.64
-34.66
-38.09
-42.89
-48.70
-54.87
-60.51
-64.75
-66.73
-65.89
-62.02
-55.42
-46.81
-37.15
-27.45
-18.50
-10.84
-4.69
-0.07
3.14
5.11
6.04
6.19
5.77
5.03
4.12
3.18
2.29
1.54
1.07
0.98
1.36
2.23
3.53
5.08
6.64
7.88
8.47
8.20
7.00
5.05
2.70
0.33
-1.74
-3.42
-4.85
-6.36
-8.33
-10.97
-14.25
-17.87
-21.37
-24.38
-26.78
-28.85
-31.12
-34.17
-38.24
-43.07
-47.85
-51.48
-52.90
-51.40
-46.82
-39.50
-30.24
-20.00
-9.77
-0.38
7.61
13.89
18.35
21.01
22.02
21.54
19.92
17.49
14.65
11.67
8.72
5.84
2.95
-0.08
-3.41
-7.17
-11.44
-16.22
-21.38
-26.69
-31.87
-36.72
-41.01
-44.54
-46.95
-47.74
-46.39
-42.50
-36.04
-27.36
-17.11
-6.06
4.94
15.14
23.87
30.72
35.69
39.28
42.37
45.90
50.41
55.86
61.62
66.81
70.74
73.19
74.30
74.41
73.73
72.23
69.69
66.01
61.31
56.05
50.92
46.64
43.77
42.60
43.14
45.08
47.95
51.15
54.03
56.08
57.00
56.79
55.65
53.93
51.95
49.97
48.19
46.77
45.79
45.17
44.50
43.00
39.71
33.73
24.60
12.53
-1.73
-16.90
-31.54
-44.27
-53.92
-59.79
-61.60
-59.72
-54.96
-48.46
-41.26
-34.10
-27.28
-20.77
-14.46
-8.31
-2.47
2.92
7.83
12.39
16.84
21.28
25.67
29.72
33.11
35.56
36.83
36.67
34.79
31.00
25.37
18.42
10.98
3.83
-2.68
-8.80
-15.27
-22.82
-31.70
-41.43
-50.96
-59.18
-65.46
-69.94
-73.54
-77.53
-83.01
-90.43
-99.39
-108.60
-115.92
-118.56
-113.49
-98.37
-72.67
-38.81
-2.22
29.74
50.17
55.09
44.90
24.15
-0.23
-21.55
-35.18
-39.24
-34.04
-21.14
-2.74
18.44
39.10
55.61
64.79
65.00
56.86
43.34
28.91
18.09
14.05
17.80
28.06
42.02
56.49
68.92
77.92
83.06
84.46
82.32
76.74
68.00
56.73
44.08
31.35
19.50
8.84
-0.78
-9.57
-17.23
-22.68
-24.40
-21.12
-12.69
-0.36
13.37
25.85
35.26
41.41
45.61
49.80
55.53
63.29
72.68
83.06
94.06
105.48
116.72
126.21
131.50
130.18
121.19
105.60
86.37
67.11
50.62
38.03
29.04
22.78
18.79
17.38
19.18
24.21
31.23
37.79
40.87
38.12
28.59
12.99
-6.91
-29.05
-51.68
-73.47
-93.15
-109.12
-119.58
-123.03
-119.16
-109.30
-96.32
-83.74
-74.55
-70.18
-70.19
-72.68
-75.05
-75.04
-71.40
-64.26
-54.89
-45.28
-37.46
-32.91
-32.16
-34.72
-39.24
-43.81
-46.58
-46.15
-41.99
-34.53
-25.07
-15.30
-6.85
-0.76
2.73
4.07
4.22
4.11
4.47
5.56
7.35
9.58
11.98
14.40
16.79
19.26
22.08
25.67
30.55
37.28
46.17
57.04
69.02
80.64
90.14
96.08
97.89
96.22
92.68
89.29
87.60
88.12
90.16
92.35
93.48
93.32
92.90
94.04
98.30
105.94
115.42
123.81
127.60
123.60
109.42
83.76
46.95
1.66
-46.66
-90.52
-122.50
-138.33
-139.07
-131.14
-123.59
-123.83
-134.16
-150.96
-166.89
-174.93
-171.73
-158.69
-140.35
-121.70
-105.83
-93.36
-83.34
-74.70
-67.25
-61.79
-59.32
-60.08
-63.11
-66.38
-67.59
-65.16
-58.86
-49.97
-40.83
-33.81
-30.31
-30.18
-31.80
-32.90
-31.72
-27.82
-22.24
-16.90
-13.67
-13.55
-16.49
-21.53
-27.35
-32.60
-36.10
-36.97
-34.66
-29.15
-20.99
-11.21
-1.02
8.53
16.92
24.22
30.89
37.60
44.96
53.42
63.11
73.92
85.40
96.91
107.77
117.49
125.84
132.71
137.77
140.42
139.94
136.05
129.30
121.21
113.62
107.81
103.54
99.03
91.68
79.38
61.68
40.08
17.29
-4.11
-22.82
-39.20
-54.70
-70.85
-88.39
-106.83
-124.81
-140.64
-153.05
-161.54
-166.37
-168.33
-168.26
-166.81
-164.22
-160.47
-155.40
-149.02
-141.50
-133.08
-123.83
-113.45
-101.41
-87.29
-71.13
-53.59
-35.53
-17.34
1.61
22.83
48.01
77.85
111.15
144.70
174.17
195.74
207.46
209.77
204.73
194.55
180.37
161.90
138.24
109.12
75.94
41.79
10.70
-13.50
-27.93
-30.82
-21.39
0.19
32.44
72.08
113.97
151.93
180.20
195.01
195.40
182.98
160.72
131.49
97.28
59.28
18.83
-21.54
-57.89
-85.69
-101.56
-105.12
-99.83
-92.19
-89.48
-96.81
-115.01
-140.32
-165.92
-184.60
-191.57
-185.78
-169.62
-147.07
-121.69
-95.46
-69.01
-42.73
-17.96
2.92
17.68
25.57
28.34
29.61
33.03
40.28
49.95
58.17
60.35
53.46
37.19
13.92
-12.26
-36.81
-55.50
-65.08
-63.61
-51.09
-29.69
-3.74
21.18
39.79
48.62
46.96
36.76
21.53
4.88
-10.61
-23.87
-34.99
-44.59
-53.35
-61.77
-70.30
-79.27
-88.80
-98.36
-106.56
-111.59
-111.88
-107.13
-98.57
-88.68
-79.93
-73.68
-69.58
-65.92
-60.76
-52.89
-42.33
-30.03
-17.21
-4.59
7.66
19.69
31.53
42.78
52.77
60.86
66.76
70.64
72.94
74.19
74.64
74.32
73.05
70.68
67.20
62.81
57.89
52.89
48.20
44.00
40.31
36.94
33.78
30.85
28.45
27.08
27.21
29.03
32.21
36.05
39.68
42.35
43.73
43.78
42.65
40.35
36.84
32.14
26.56
20.78
15.55
11.40
8.27
5.51
2.13
-2.64
-8.96
-16.17
-23.10
-28.53
-31.71
-32.61
-31.93
-30.70
-29.90
-30.07
-31.07
-32.23
-32.50
-30.84
-26.57
-19.51
-9.96
1.42
13.95
27.03
40.38
53.86
67.43
80.72
92.79
101.98
106.09
102.98
91.16
70.47
42.15
8.66
-26.91
-61.56
-92.83
-119.14
-139.72
-154.59
-164.21
-169.40
-171.07
-170.08
-167.16
-162.88
-157.76
-152.25
-146.67
-141.09
-135.27
-128.82
-121.40
-113.01
-103.94
-94.52
-84.76
-74.13
-61.83
-47.14
-30.14
-11.74
6.31
22.06
33.96
41.31
44.47
44.66
43.83
44.18
47.75
55.75
68.13
83.19
97.93
108.84
113.10
109.68
99.88
87.07
75.35
68.00
66.24
68.64
72.10
73.12
69.42
60.56
47.76
33.08
18.36
4.88
-6.63
-15.60
-21.29
-22.89
-19.97
-12.81
-2.57
8.78
19.07
26.51
30.21
30.47
28.65
26.65
26.20
28.28
32.75
38.52
43.91
47.09
46.46
40.78
29.59
13.32
-6.51
-27.76
-48.16
-66.02
-80.66
-92.40
-102.58
-113.21
-126.71
-145.20
-169.79
-199.61
-231.61
-261.07
-282.82
-292.67
-288.09
-268.51
-235.08
-190.64
-139.87
-89.34
-46.66
-18.48
-8.18
-14.27
-30.67
-48.96
-61.32
-63.00
-53.05
-33.48
-7.59
21.46
51.21
79.81
105.52
126.72
142.07
150.98
153.90
152.28
147.95
142.55
136.96
131.19
124.77
117.23
108.65
99.83
92.13
86.91
85.09
86.71
90.79
95.66
99.42
100.67
98.92
94.75
89.42
84.14
79.63
75.90
72.62
69.55
66.90
65.25
65.03
66.22
68.15
69.90
70.66
70.11
68.25
65.14
60.67
54.46
46.25
36.25
25.27
14.58
5.50
-1.05
-4.88
-6.57
-7.27
-8.23
-10.50
-14.49
-19.85
-25.80
-31.38
-35.84
-38.69
-39.61
-38.22
-33.99
-26.48
-15.83
-3.18
9.41
19.43
24.92
25.25
21.41
15.49
9.69
5.45
2.99
1.57
0.14
-1.92
-4.66
-7.63
-10.31
-12.55
-14.61
-17.07
-20.45
-25.08
-30.98
-37.84
-45.15
-52.27
-58.60
-63.74
-67.58
-70.24
-71.95
-72.87
-73.10
-72.84
-72.53
-72.68
-73.49
-74.37
-73.84
-69.89
-61.05
-47.11
-29.54
-10.93
6.05
19.70
29.77
37.15
43.20
49.04
55.17
61.52
67.71
73.31
78.08
82.12
85.92
90.27
95.91
103.05
111.15
118.97
125.01
128.05
127.26
121.82
110.44
91.52
64.28
30.11
-6.74
-40.03
-64.13
-76.62
-79.55
-78.32
-78.91
-84.82
-95.78
-108.59
-119.47
-126.39
-129.93
-132.41
-136.23
-142.45
-150.37
-158.01
-163.14
-164.00
-159.73
-150.19
-135.35
-114.81
-87.68
-53.22
-11.86
33.70
78.44
116.16
141.46
151.94
148.98
137.21
122.46
109.45
100.35
94.67
90.28
84.81
76.68
65.27
50.78
33.77
14.98
-4.57
-23.55
-40.25
-53.08
-60.68
-62.13
-56.91
-44.74
-25.52
0.56
32.65
68.94
106.46
141.65
170.94
191.76
203.15
205.76
201.37
191.91
178.63
161.72
140.74
115.34
86.07
54.59
23.04
-6.67
-33.74
-58.30
-80.90
-101.69
-120.10
-135.02
-145.60
-151.83
-154.63
-155.42
-155.35
-154.64
-152.68
-148.35
-140.95
-130.52
-118.04
-104.97
-92.83
-82.71
-75.22
-70.49
-68.18
-67.49
-67.17
-65.77
-62.01
-55.31
-46.04
-35.40
-24.94
-15.98
-9.16
-4.38
-1.14
1.11
2.70
3.70
4.02
3.60
2.38
0.38
-2.36
-5.76
-9.65
-13.73
-17.72
-21.41
-24.86
-28.34
-32.17
-36.42
-40.68
-44.10
-45.59
-44.35
-40.15
-33.52
-25.40
-16.84
-8.60
-0.88
6.49
13.95
21.97
31.10
41.69
53.62
66.09
77.62
86.57
91.80
93.30
92.26
90.48
89.47
89.69
90.55
90.88
89.70
86.73
82.33
77.05
71.16
64.59
57.08
48.66
39.76
31.12
23.43
17.21
12.61
9.61
8.19
8.43
10.43
14.10
19.12
24.83
30.45
35.21
38.63
40.55
41.11
40.59
39.24
37.24
34.70
31.77
28.73
25.97
23.85
22.62
22.21
22.27
22.22
21.48
19.67
16.80
13.21
9.43
5.93
2.83
-0.12
-3.38
-7.49
-12.72
-19.08
-26.30
-33.92
-41.36
-47.88
-52.69
-54.96
-54.10
-50.00
-43.12
-34.44
-25.21
-16.48
-8.90
-2.58
2.82
7.73
12.47
17.02
21.06
24.09
25.77
26.06
25.30
24.22
23.61
24.08
25.86
28.70
31.95
34.84
36.77
37.39
36.67
34.71
31.59
27.41
22.33
16.66
10.95
5.67
1.07
-3.06
-7.40
-12.63
-18.96
-25.73
-31.51
-34.71
-34.36
-30.69
-24.97
-18.95
-13.86
-9.95
-6.45
-2.23
3.47
10.46
17.80
24.26
28.87
31.40
32.28
32.24
31.95
31.79
31.83
31.95
32.01
31.98
32.01
32.23
32.71
33.25
33.52
33.13
31.84
29.69
26.91
23.75
20.34
16.62
12.49
7.89
3.01
-1.82
-6.25
-10.10
-13.51
-16.91
-20.84
-25.72
-31.58
-37.87
-43.53
-47.33
-48.24
-45.89
-40.63
-33.40
-25.30
-17.18
-9.47
-2.29
4.31
10.13
14.78
17.82
19.03
18.49
16.63
14.10
11.66
9.95
9.44
10.28
12.23
14.70
16.91
18.15
18.03
16.57
14.14
11.23
8.23
5.28
2.31
-0.90
-4.45
-8.33
-12.41
-16.55
-20.75
-25.07
-29.57
-34.05
-38.09
-40.97
-41.99
-40.67
-36.97
-31.42
-24.85
-18.22
-12.27
-7.32
-3.36
-0.14
2.55
4.80
6.50
7.57
7.97
7.82
7.36
6.81
6.40
6.31
6.76
7.82
9.43
11.16
12.36
12.33
10.69
7.54
3.49
-0.65
-4.22
-6.96
-9.08
-11.10
-13.58
-16.94
-21.27
-26.36
-31.64
-36.30
-39.43
-40.20
-38.18
-33.50
-26.75
-18.83
-10.68
-3.03
3.68
9.26
13.71
17.11
19.61
21.39
22.59
23.30
23.56
23.33
22.64
21.62
20.45
19.31
18.30
17.37
16.45
15.48
14.49
13.50
12.49
11.30
9.74
7.69
5.15
2.36
-0.33
-2.60
-4.31
-5.58
-6.77
-8.33
-10.65
-13.97
-18.21
-22.98
-27.55
-31.08
-32.75
-31.99
-28.66
-23.02
-15.65
-7.20
1.68
10.53
19.01
26.89
34.03
40.27
45.48
49.43
51.84
52.34
50.62
46.43
39.73
30.78
20.03
8.19
-3.94
-15.51
-25.72
-33.85
-39.32
-41.79
-41.34
-38.49
-34.10
-29.06
-23.95
-18.93
-13.80
-8.51
-3.44
0.56
2.54
2.09
-0.23
-3.06
-4.82
-4.49
-2.07
1.52
4.99
7.30
8.05
7.43
5.83
3.79
1.78
0.45
0.62
3.11
8.12
14.79
20.99
23.75
20.30
9.23
-8.74
-30.88
-53.24
-71.83
-83.39
-85.76
-77.76
-59.19
-31.11
3.64
40.37
73.13
96.30
106.27
102.50
87.37
65.04
39.82
15.12
-6.81
-24.60
-37.27
-44.14
-45.12
-40.90
-32.88
-22.68
-11.51
0.11
12.17
24.62
36.87
47.75
55.75
59.53
58.35
52.20
41.87
28.63
14.24
0.61
-10.32
-16.95
-18.39
-14.75
-7.04
3.08
13.80
23.55
31.28
36.44
38.97
39.16
37.58
35.06
32.50
30.71
30.03
30.22
30.45
29.65
27.02
22.45
16.54
10.44
5.29
1.82
0.10
-0.40
-0.51
-1.04
-2.59
-5.37
-9.31
-14.12
-19.38
-24.64
-29.49
-33.54
-36.43
-37.83
-37.48
-35.31
-31.44
-26.37
-20.72
-15.19
-10.36
-6.45
-3.41
-0.96
1.15
2.93
4.05
3.96
2.19
-1.35
-6.23
-11.62
-16.63
-20.68
-23.67
-25.88
-27.77
-29.64
-31.61
-33.59
-35.47
-37.23
-38.92
-40.68
-42.58
-44.52
-46.27
-47.51
-47.98
-47.69
-46.81
-45.67
-44.38
-42.68
-39.86
-35.10
-27.91
-18.46
-7.66
3.24
13.14
21.34
27.63
32.04
34.63
35.43
34.59
32.46
29.61
26.64
23.89
21.36
18.75
15.74
12.20
8.31
4.44
0.89
-2.13
-4.64
-6.69
-8.26
-9.20
-9.27
-8.35
-6.60
-4.61
-3.20
-3.23
-5.14
-8.77
-13.27
-17.39
-20.01
-20.39
-18.59
-15.28
-11.37
-7.71
-4.71
-2.46
-0.82
0.11
0.07
-1.34
-4.30
-8.50
-13.24
-17.58
-20.81
-22.65
-23.34
-23.41
-23.40
-23.72
-24.53
-25.95
-27.94
-30.37
-32.89
-35.08
-36.56
-37.34
-37.87
-38.94
-41.28
-45.15
-50.20
-55.50
-59.86
-62.16
-61.65
-58.07
-51.60
-42.95
-33.08
-23.06
-13.82
-5.86
0.74
6.18
10.68
14.31
16.94
18.37
18.56
17.73
16.30
14.68
13.13
11.64
10.04
8.11
5.77
3.10
0.33
-2.32
-4.70
-6.83
-8.92
-11.22
-14.00
-17.48
-21.83
-27.10
-33.09
-39.21
-44.50
-47.79
-48.04
-44.75
-38.16
-29.15
-19.02
-8.98
0.11
7.84
14.15
19.15
22.95
25.51
26.82
26.90
25.99
24.59
23.26
22.54
22.63
23.28
23.90
23.90
22.87
20.85
18.21
15.36
12.55
9.70
6.53
2.76
-1.70
-6.75
-12.20
-17.94
-23.86
-29.83
-35.41
-39.90
-42.43
-42.26
-39.16
-33.43
-25.81
-17.18
-8.21
0.89
10.22
19.98
29.93
39.16
46.27
49.84
49.16
44.68
37.95
30.96
25.40
21.94
20.24
19.40
18.57
17.41
16.05
14.80
13.73
12.60
10.99
8.60
5.54
2.14
-1.16
-4.09
-6.88
-10.12
-14.38
-19.81
-25.75
-30.80
-33.31
-32.06
-26.77
-18.31
-8.21
1.93
10.99
18.57
24.76
29.79
33.76
36.56
38.05
38.22
37.31
35.77
34.09
32.63
31.51
30.58
29.57
28.28
26.70
25.06
23.66
22.66
22.03
21.50
20.82
19.81
18.40
16.59
14.22
11.08
6.91
1.51
-5.06
-12.55
-20.52
-28.31
-35.08
-39.86
-41.65
-39.77
-34.12
-25.33
-14.68
-3.70
6.31
14.56
20.79
25.18
28.01
29.49
29.78
28.98
27.30
25.03
22.62
20.54
19.20
18.88
19.61
21.17
23.15
25.12
26.79
28.06
28.96
29.48
29.46
28.65
26.81
23.94
20.24
16.00
11.35
6.23
0.45
-6.07
-13.09
-19.97
-25.88
-29.93
-31.40
-29.75
-24.65
-16.06
-4.35
9.44
23.59
35.78
43.56
45.09
39.77
28.78
14.99
2.13
-6.33
-8.26
-3.43
6.55
18.76
29.88
36.99
38.39
34.00
25.67
16.53
9.92
7.87
10.05
13.78
15.17
11.14
0.86
-13.79
-29.34
-42.43
-51.24
-55.83
-57.47
-57.44
-56.15
-53.12
-47.47
-38.85
-27.89
-15.99
-4.80
4.55
11.88
17.90
23.67
30.04
37.04
43.92
49.56
52.98
53.91
52.92
51.23
50.25
51.19
54.74
60.92
69.23
78.58
87.47
94.31
97.77
97.29
93.06
85.76
75.94
63.70
48.67
30.62
10.05
-11.70
-32.77
-51.52
-66.88
-78.32
-85.56
-88.32
-86.44
-80.37
-71.40
-61.49
-52.67
-46.41
-43.44
-43.87
-47.55
-54.19
-63.17
-73.32
-83.04
-90.74
-95.46
-97.20
-96.75
-95.17
-93.25
-91.15
-88.53
-84.79
-79.41
-72.03
-62.56
-51.19
-38.29
-24.49
-10.42
3.34
16.45
28.88
40.86
52.78
65.14
78.41
92.92
108.83
125.96
143.69
161.04
176.86
190.15
200.57
208.50
214.86
220.51
225.64
229.50
230.63
227.40
218.70
204.16
184.16
159.51
131.32
100.74
68.99
37.26
6.45
-22.81
-50.20
-75.33
-97.58
-116.00
-129.76
-138.66
-143.44
-145.73
-147.48
-150.33
-155.09
-161.65
-169.16
-176.33
-181.75
-184.14
-182.58
-176.71
-166.72
-153.43
-138.00
-121.73
-105.79
-91.13
-78.26
-67.37
-58.30
-50.74
-44.35
-38.90
-34.22
-30.18
-26.65
-23.39
-20.18
-16.95
-13.86
-11.34
-9.91
-10.01
-11.81
-15.13
-19.52
-24.41
-29.36
-34.16
-38.94
-44.03
-49.79
-56.32
-63.29
-69.91
-75.17
-78.07
-77.91
-74.46
-67.92
-58.91
-48.29
-37.09
-26.32
-16.68
-8.45
-1.28
5.53
12.77
20.78
29.21
37.09
43.19
46.64
47.29
45.81
43.31
40.90
39.19
38.20
37.39
36.12
33.88
30.49
26.07
20.89
15.19
9.20
3.10
-2.90
-8.61
-13.94
-19.11
-24.52
-30.65
-37.62
-44.88
-51.24
-55.10
-55.12
-50.65
-41.99
-30.10
-16.30
-1.87
12.01
24.25
33.89
40.21
43.08
43.11
41.50
39.61
38.35
37.87
37.67
37.07
35.70
33.73
31.78
30.48
30.14
30.52
30.95
30.53
28.52
24.65
19.30
13.31
7.75
3.43
0.57
-1.31
-3.16
-6.01
-10.58
-17.03
-24.87
-33.07
-40.36
-45.42
-47.20
-45.14
-39.35
-30.56
-19.88
-8.60
2.28
12.10
20.64
27.94
34.05
38.91
42.34
44.22
44.62
43.93
42.72
41.57
40.81
40.39
40.02
39.32
38.10
36.39
34.38
32.26
30.07
27.67
24.83
21.33
17.06
12.12
6.68
1.00
-4.64
-10.05
-14.95
-19.18
-22.71
-25.77
-28.96
-32.98
-38.37
-44.96
-51.83
-57.48
-60.36
-59.36
-54.21
-45.35
-33.76
-20.68
-7.41
4.77
14.83
22.15
26.70
29.08
30.16
30.75
31.32
31.97
32.60
33.12
33.53
33.91
34.27
34.49
34.38
33.76
32.58
30.92
28.96
26.90
24.79
22.55
19.98
16.91
13.31
9.41
5.65
2.43
-0.12
-2.34
-4.90
-8.52
-13.62
-20.05
-27.07
-33.58
-38.43
-40.71
-39.95
-36.09
-29.52
-20.91
-11.12
-1.07
8.37
16.54
23.14
28.16
31.84
34.52
36.43
37.75
38.52
38.87
38.96
39.02
39.12
39.19
39.00
38.29
36.92
34.96
32.66
30.28
27.99
25.78
23.52
21.04
18.20
15.00
11.50
7.92
4.47
1.31
-1.52
-4.24
-7.24
-10.99
-15.79
-21.60
-27.91
-33.82
-38.28
-40.32
-39.39
-35.41
-28.77
-20.20
-10.59
-0.84
8.31
16.32
22.91
28.02
31.71
34.17
35.54
36.01
35.81
35.16
34.29
33.41
32.65
32.05
31.62
31.26
30.91
30.44
29.69
28.54
26.89
24.67
21.82
18.33
14.19
9.51
4.49
-0.56
-5.29
-9.47
-12.99
-15.97
-18.61
-21.22
-24.14
-27.65
-31.85
-36.48
-40.95
-44.33
-45.71
-44.42
-40.35
-33.97
-26.06
-17.50
-8.92
-0.73
6.88
13.67
19.37
23.62
26.17
27.06
26.61
25.41
24.07
23.07
22.65
22.82
23.44
24.30
25.22
26.01
26.52
26.66
26.42
25.86
25.03
23.94
22.52
20.71
18.50
16.05
13.60
11.37
9.38
7.40
5.01
1.77
-2.66
-8.44
-15.57
-23.84
-32.79
-41.67
-49.46
-55.00
-57.31
-55.86
-50.76
-42.72
-32.91
-22.56
-12.73
-4.12
2.94
8.40
12.39
15.16
16.95
18.04
18.64
18.90
18.84
18.47
17.81
16.95
16.03
15.23
14.66
14.32
14.11
13.91
13.58
12.92
11.65
9.37
5.68
0.38
-6.27
-13.56
-20.44
-25.94
-29.54
-31.38
-32.15
-32.74
-33.88
-35.89
-38.80
-42.45
-46.60
-50.87
-54.65
-57.00
-56.85
-53.39
-46.39
-36.40
-24.68
-12.79
-2.16
6.30
12.32
16.19
18.54
20.07
21.26
22.38
23.49
24.58
25.66
26.78
27.92
28.86
29.27
28.82
27.46
25.43
23.26
21.38
19.95
18.67
17.00
14.44
10.83
6.50
2.10
-1.71
-4.58
-6.65
-8.40
-10.46
-13.33
-17.21
-22.05
-27.50
-33.05
-38.09
-41.90
-43.74
-43.09
-39.75
-33.98
-26.50
-18.18
-9.92
-2.43
3.87
8.81
12.41
14.79
16.15
16.76
16.83
16.64
16.36
16.13
16.05
16.14
16.37
16.57
16.50
15.96
14.85
13.25
11.34
9.29
7.15
4.91
2.45
-0.23
-3.02
-5.74
-8.19
-10.29
-12.13
-13.97
-16.12
-18.93
-22.60
-27.13
-32.06
-36.58
-39.65
-40.31
-38.17
-33.46
-27.02
-19.87
-12.86
-6.43
-0.59
4.78
9.78
14.30
18.13
21.04
22.97
24.05
24.62
25.02
25.50
26.11
26.70
27.02
26.86
26.19
25.17
24.02
22.97
22.01
21.02
19.70
17.73
14.93
11.31
7.12
2.75
-1.36
-4.91
-7.91
-10.61
-13.48
-16.99
-21.48
-26.95
-33.12
-39.28
-44.51
-47.78
-48.31
-45.80
-40.54
-33.40
-25.43
-17.60
-10.47
-4.20
1.35
6.25
10.45
13.74
15.89
16.89
16.97
16.59
16.30
16.58
17.72
19.66
22.09
24.50
26.32
27.09
26.64
25.11
22.83
20.20
17.47
14.69
11.72
8.42
4.77
0.95
-2.77
-6.20
-9.31
-12.30
-15.41
-18.83
-22.61
-26.71
-31.15
-35.91
-40.92
-45.84
-49.97
-52.37
-52.10
-48.72
-42.36
-33.87
-24.48
-15.35
-7.27
-0.49
5.18
10.10
14.51
18.42
21.62
23.85
24.99
25.18
24.81
24.33
24.07
24.08
24.19
24.11
23.61
22.66
21.35
19.83
18.18
16.34
14.13
11.42
8.27
4.90
1.68
-1.13
-3.48
-5.62
-7.90
-10.64
-13.89
-17.44
-21.00
-24.44
-27.93
-31.84
-36.49
-41.77
-46.99
-50.99
-52.57
-50.96
-46.11
-38.71
-29.84
-20.58
-11.68
-3.49
3.90
10.45
16.02
20.42
23.49
25.34
26.33
26.94
27.59
28.47
29.52
30.49
31.11
31.16
30.57
29.46
28.04
26.68
25.67
25.17
24.96
24.51
23.15
20.39
16.18
11.02
5.70
0.98
-2.75
-5.64
-8.20
-10.96
-14.34
-18.46
-23.28
-28.73
-34.63
-40.69
-46.30
-50.58
-52.52
-51.40
-47.07
-40.11
-31.60
-22.70
-14.29
-6.79
-0.26
5.39
10.09
13.62
15.77
16.55
16.37
15.96
16.03
16.99
18.74
20.81
22.63
23.88
24.61
25.10
25.60
26.07
26.20
25.54
23.85
21.17
17.79
14.01
10.00
5.71
1.05
-3.94
-9.10
-14.23
-19.24
-24.23
-29.29
-34.35
-38.91
-42.11
-43.04
-41.08
-36.22
-29.11
-20.80
-12.33
-4.48
2.37
8.14
12.80
16.25
18.38
19.25
19.18
18.81
18.78
19.51
20.90
22.40
23.27
23.03
21.66
19.63
17.68
16.41
16.02
16.21
16.41
16.02
14.61
12.05
8.38
3.77
-1.62
-7.66
-14.24
-21.28
-28.73
-36.48
-44.24
-51.45
-57.28
-60.75
-61.07
-57.85
-51.28
-42.07
-31.31
-20.12
-9.51
-0.25
7.18
12.69
16.50
19.08
20.93
22.43
23.69
24.65
25.16
25.21
24.93
24.53
24.19
23.93
23.60
23.04
22.20
21.07
19.74
18.15
16.14
13.46
9.93
5.55
0.58
-4.52
-9.37
-13.70
-17.64
-21.58
-26.02
-31.31
-37.40
-43.76
-49.44
-53.36
-54.66
-52.97
-48.45
-41.74
-33.64
-24.90
-16.04
-7.33
1.07
9.06
16.47
23.17
28.99
33.81
37.61
40.39
42.20
43.09
43.11
42.33
40.91
39.12
37.30
35.78
34.67
33.95
33.39
32.71
31.67
30.11
27.95
25.09
21.34
16.50
10.45
3.34
-4.36
-12.05
-19.25
-25.80
-31.94
-38.11
-44.57
-51.16
-57.16
-61.60
-63.54
-62.51
-58.60
-52.31
-44.33
-35.24
-25.51
-15.50
-5.63
3.63
11.80
18.54
23.79
27.71
30.72
33.21
35.56
37.87
40.10
42.00
43.23
43.51
42.65
40.68
37.81
34.44
30.94
27.62
24.59
21.73
18.77
15.43
11.47
6.90
1.95
-2.94
-7.27
-10.61
-12.71
-13.61
-13.64
-13.45
-13.84
-15.58
-19.13
-24.40
-30.73
-37.02
-42.06
-44.82
-44.68
-41.50
-35.61
-27.66
-18.48
-8.93
0.27
8.66
15.99
22.13
26.95
30.24
31.75
31.40
29.38
26.23
22.73
19.61
17.37
16.19
16.00
16.60
17.79
19.32
20.88
22.08
22.43
21.52
19.16
15.42
10.68
5.45
0.25
-4.57
-8.85
-12.69
-16.28
-19.99
-24.17
-29.02
-34.48
-40.12
-45.12
-48.48
-49.32
-47.09
-41.80
-34.04
-24.77
-15.17
-6.33
0.97
6.39
9.98
12.04
13.01
13.40
13.76
14.65
16.53
19.62
23.65
27.87
31.27
32.94
32.48
30.11
26.67
23.18
20.53
19.17
19.04
19.67
20.36
20.42
19.34
16.84
12.88
7.63
1.25
-6.11
-14.26
-22.94
-31.75
-40.27
-48.13
-55.03
-60.61
-64.12
-64.54
-60.81
-52.47
-40.05
-25.11
-9.68
4.38
16.03
25.10
32.03
37.43
41.84
45.70
49.52
53.90
59.33
65.96
73.44
81.05
88.06
94.08
99.18
103.93
109.12
115.69
124.38
135.45
148.26
160.98
170.68
173.85
167.49
150.31
123.42
90.29
55.87
25.14
1.66
-13.29
-20.72
-23.37
-24.54
-27.24
-33.42
-43.84
-58.11
-75.07
-92.98
-109.90
-123.87
-133.19
-136.72
-134.22
-126.38
-114.77
-101.45
-88.44
-77.24
-68.59
-62.46
-58.41
-55.82
-54.18
-53.14
-52.43
-51.75
-50.68
-48.75
-45.48
-40.56
-33.94
-25.89
-16.98
-7.97
0.32
7.18
12.19
15.33
16.89
17.39
17.32
16.98
16.40
15.34
13.43
10.24
5.54
-0.63
-7.90
-15.61
-23.09
-29.78
-35.46
-40.17
-44.13
-47.60
-50.75
-53.67
-56.33
-58.61
-60.21
-60.61
-59.14
-55.21
-48.51
-39.25
-28.20
-16.50
-5.36
4.24
11.85
17.47
21.37
23.85
24.96
24.52
22.35
18.50
13.49
8.18
3.55
0.27
-1.47
-1.92
-1.61
-1.04
-0.48
-0.02
0.37
0.58
0.45
-0.30
-1.85
-4.17
-7.04
-10.12
-13.10
-15.81
-18.24
-20.46
-22.59
-24.73
-27.04
-29.81
-33.36
-37.93
-43.44
-49.36
-54.70
-58.23
-58.89
-56.09
-49.96
-41.26
-31.15
-20.87
-11.34
-3.07
3.86
9.62
14.51
18.72
22.25
24.94
26.55
26.97
26.29
24.91
23.33
22.10
21.43
21.21
21.07
20.59
19.51
17.85
15.81
13.61
11.30
8.78
5.87
2.50
-1.31
-5.41
-9.72
-14.25
-19.00
-23.90
-28.61
-32.67
-35.69
-37.61
-38.84
-40.14
-42.19
-45.26
-48.95
-52.21
-53.89
-53.04
-49.40
-43.27
-35.38
-26.50
-17.22
-7.92
1.15
9.69
17.43
24.13
29.77
34.50
38.61
42.42
46.16
50.00
53.95
57.78
60.98
62.86
62.78
60.53
56.53
51.67
47.00
43.25
40.51
38.36
36.14
33.43
30.13
26.44
22.65
18.84
14.98
10.92
6.62
2.13
-2.36
-6.67
-10.67
-14.39
-18.01
-21.84
-26.22
-31.43
-37.50
-44.06
-50.31
-55.06
-57.10
-55.54
-50.14
-41.43
-30.57
-18.93
-7.71
2.33
10.98
18.33
24.53
29.65
33.57
36.18
37.53
37.86
37.67
37.45
37.64
38.38
39.57
40.88
41.89
42.23
41.69
40.28
38.22
35.84
33.43
31.14
28.92
26.60
23.95
20.85
17.28
13.33
9.16
4.94
0.85
-2.91
-6.20
-8.96
-11.40
-13.91
-17.02
-21.14
-26.31
-32.13
-37.70
-41.91
-43.73
-42.55
-38.36
-31.70
-23.43
-14.45
-5.51
2.91
10.47
16.92
22.04
25.68
27.84
28.68
28.51
27.71
26.66
25.68
24.96
24.61
24.55
24.57
24.40
23.81
22.74
21.35
19.84
18.39
16.98
15.37
13.32
10.59
7.20
3.31
-0.83
-5.04
-9.24
-13.44
-17.67
-21.93
-26.29
-30.89
-36.02
-41.85
-48.22
-54.49
-59.53
-62.07
-61.16
-56.52
-48.66
-38.66
-27.74
-16.96
-7.04
1.65
8.97
14.92
19.57
23.00
25.36
26.80
27.51
27.72
27.69
27.71
28.03
28.81
30.05
31.58
33.13
34.45
35.34
35.68
35.43
34.60
33.29
31.62
29.74
27.74
25.56
23.11
20.27
16.97
13.21
9.11
4.82
0.57
-3.39
-6.86
-9.76
-12.31
-15.02
-18.62
-23.65
-30.12
-37.23
-43.50
-47.22
-46.98
-42.18
-32.92
-20.02
-4.67
11.73
27.65
41.70
52.86
60.77
65.80
68.87
71.03
73.10
75.40
77.83
80.07
81.71
82.46
81.98
79.90
75.73
69.14
60.10
49.18
37.81
28.05
22.20
21.79
26.68
34.78
42.66
46.94
45.89
40.11
32.11
24.93
20.60
19.34
19.79
20.10
19.06
16.63
13.69
11.25
9.62
8.14
5.33
-0.38
-10.19
-24.51
-43.08
-65.20
-89.77
-115.22
-139.28
-158.94
-170.91
-172.60
-163.19
-144.11
-118.63
-90.80
-64.19
-41.05
-22.28
-7.80
2.84
10.24
15.16
18.68
22.18
27.08
34.32
43.95
54.97
65.57
73.76
78.02
77.78
73.54
66.59
58.44
50.42
43.31
37.56
33.50
31.57
32.34
36.16
42.88
51.60
60.77
68.61
73.66
75.18
73.19
68.23
60.97
51.98
41.86
31.68
23.09
17.80
16.74
19.16
22.62
23.91
20.63
12.50
1.52
-9.13
-16.74
-20.41
-21.37
-22.03
-24.55
-29.76
-36.86
-44.20
-50.25
-54.42
-57.10
-59.21
-61.43
-63.76
-65.51
-65.80
-64.30
-61.44
-58.40
-56.40
-56.20
-57.75
-60.41
-63.46
-66.59
-70.05
-74.47
-80.49
-88.41
-98.09
-108.94
-120.16
-130.91
-140.41
-147.92
-152.76
-154.41
-152.58
-147.40
-139.51
-129.96
-119.97
-110.47
-101.85
-93.90
-86.06
-77.80
-68.91
-59.59
-50.12
-40.73
-31.42
-22.08
-12.89
-4.39
2.57
7.23
9.40
9.77
9.83
11.39
15.96
24.21
35.87
49.74
64.26
78.04
90.35
101.40
112.29
124.59
139.63
157.74
177.67
196.49
210.15
214.57
206.93
186.82
156.81
122.13
89.69
66.36
57.29
64.18
84.51
111.87
137.68
153.77
154.96
140.60
114.40
82.66
51.98
27.19
10.44
1.34
-2.16
-2.69
-2.69
-3.98
-7.58
-13.65
-21.63
-30.35
-38.45
-44.73
-48.39
-49.22
-47.62
-44.56
-41.41
-39.48
-39.65
-42.05
-45.94
-50.08
-53.26
-54.81
-54.90
-54.54
-55.09
-57.84
-63.49
-71.89
-82.06
-92.51
-101.64
-108.22
-111.58
-111.65
-108.87
-103.88
-97.37
-89.93
-81.99
-73.89
-65.88
-58.28
-51.44
-45.82
-41.84
-39.82
-39.90
-41.99
-45.81
-50.88
-56.56
-62.14
-66.95
-70.50
-72.56
-73.19
-72.61
-71.17
-69.33
-67.70
-67.04
-68.03
-71.06
-75.83
-81.28
-85.73
-87.61
-86.12
-81.70
-76.01
-71.33
-69.74
-72.51
-79.88
-91.17
-105.12
-120.13
-134.51
-146.76
-155.87
-161.72
-165.11
-167.44
-169.83
-172.27
-173.29
-170.11
-159.56
-138.99
-107.23
-64.97
-14.79
39.27
92.33
139.64
177.56
204.27
220.01
226.52
226.11
220.88
212.44
202.08
191.10
180.84
172.18
165.16
158.94
152.48
145.41
138.35
132.46
128.23
124.71
119.44
109.70
94.03
73.23
50.16
28.44
11.09
-0.34
-5.87
-6.49
-3.54
1.74
8.31
15.52
23.10
31.11
39.70
48.64
57.20
64.10
68.16
68.80
66.36
61.88
56.66
51.76
47.73
44.77
42.80
41.61
40.93
40.36
39.47
37.88
35.34
31.79
27.41
22.43
17.07
11.45
5.51
-0.84
-7.58
-14.32
-20.26
-24.25
-25.29
-23.04
-18.21
-12.55
-8.25
-7.21
-10.14
-16.36
-23.94
-30.47
-33.91
-33.16
-28.24
-20.09
-9.99
0.83
11.49
21.44
30.28
37.67
43.34
47.17
49.34
50.36
50.83
51.27
51.84
52.41
52.65
52.34
51.51
50.44
49.50
48.86
48.41
47.75
46.39
43.98
40.42
35.88
30.64
24.96
18.93
12.60
6.08
-0.40
-6.48
-11.82
-16.30
-20.17
-23.95
-28.33
-33.91
-40.92
-49.14
-57.80
-65.77
-71.79
-74.76
-74.06
-69.59
-61.81
-51.51
-39.72
-27.43
-15.53
-4.71
4.56
12.01
17.62
21.53
24.06
25.54
26.27
26.46
26.29
25.99
25.82
25.93
26.28
26.62
26.56
25.82
24.44
22.67
20.86
19.12
17.19
14.50
10.59
5.38
-0.62
-6.66
-12.06
-16.63
-20.72
-24.99
-29.96
-35.87
-42.49
-49.22
-55.20
-59.39
-60.71
-58.10
-50.99
-39.62
-25.27
-10.05
3.72
14.32
21.17
24.88
26.79
28.12
29.57
31.04
32.05
32.16
31.39
30.12
28.88
27.98
27.34
26.67
25.65
24.22
22.53
20.74
18.97
17.03
14.61
11.41
7.37
2.67
-2.33
-7.21
-11.77
-16.04
-20.32
-25.08
-30.84
-37.84
-45.86
-53.99
-60.75
-64.49
-63.87
-58.55
-49.20
-37.34
-24.68
-12.58
-1.74
7.72
15.94
23.00
28.75
32.93
35.40
36.28
36.02
35.17
34.28
33.61
33.26
33.07
32.88
32.58
32.11
31.50
30.74
29.80
28.62
27.07
24.96
22.11
18.40
13.80
8.49
2.78
-2.97
-8.46
-13.62
-18.47
-23.20
-27.98
-33.07
-38.76
-45.26
-52.46
-59.73
-65.85
-69.18
-68.32
-62.57
-52.39
-39.23
-25.02
-11.52
0.29
10.19
18.60
25.95
32.38
37.69
41.53
43.64
44.08
43.26
41.71
40.00
38.47
37.26
36.31
35.44
34.49
33.31
31.82
29.98
27.78
25.20
22.17
18.62
14.48
9.79
4.74
-0.36
-5.13
-9.30
-12.72
-15.51
-17.93
-20.40
-23.34
-27.17
-32.17
-38.46
-45.73
-53.23
-59.75
-63.85
-64.29
-60.44
-52.50
-41.43
-28.61
-15.47
-3.11
7.75
16.77
23.84
28.94
32.19
33.78
34.07
33.49
32.50
31.45
30.47
29.57
28.57
27.42
26.17
25.04
24.33
24.16
24.37
24.46
23.71
21.50
17.57
12.15
5.91
-0.27
-5.66
-9.95
-13.34
-16.45
-20.04
-24.78
-30.99
-38.49
-46.46
-53.59
-58.28
-59.14
-55.37
-47.15
-35.58
-22.39
-9.36
2.23
11.77
19.25
24.92
29.03
31.64
32.82
32.74
31.75
30.35
28.97
27.86
27.01
26.27
25.41
24.30
22.93
21.48
20.17
19.12
18.35
17.58
16.36
14.20
10.79
6.15
0.66
-5.03
-10.28
-14.71
-18.35
-21.60
-25.05
-29.34
-34.91
-41.79
-49.48
-56.94
-62.76
-65.44
-63.93
-57.91
-47.93
-35.26
-21.55
-8.31
3.42
13.15
20.83
26.67
30.95
33.91
35.74
36.60
36.66
36.13
35.22
34.17
33.14
32.24
31.44
30.67
29.87
29.02
28.09
26.99
25.56
23.56
20.90
17.63
14.00
10.27
6.63
3.03
-0.65
-4.46
-8.23
-11.67
-14.47
-16.62
-18.45
-20.52
-23.45
-27.71
-33.49
-40.64
-48.61
-56.41
-62.71
-66.03
-65.22
-59.83
-50.35
-38.09
-24.75
-11.99
-0.90
8.07
15.06
20.52
24.95
28.66
31.79
34.22
35.83
36.54
36.47
35.90
35.18
34.59
34.24
34.07
33.90
33.49
32.58
30.93
28.36
24.83
20.48
15.69
10.94
6.66
3.09
0.25
-2.04
-4.04
-6.00
-8.18
-10.75
-13.89
-17.70
-22.20
-27.35
-33.04
-39.24
-45.89
-52.81
-59.49
-65.04
-68.36
-68.36
-64.46
-56.83
-46.28
-34.12
-21.68
-9.99
0.33
9.00
15.98
21.31
25.04
27.31
28.34
28.40
27.75
26.62
25.17
23.54
21.89
20.37
19.13
18.26
17.75
17.46
17.17
16.60
15.46
13.54
10.78
7.34
3.52
-0.28
-3.82
-7.08
-10.28
-13.86
-18.26
-23.80
-30.53
-38.12
-45.74
-52.15
-55.88
-55.70
-51.08
-42.47
-31.23
-19.15
-7.85
1.73
9.41
15.45
20.25
23.96
26.49
27.59
27.21
25.52
23.04
20.50
18.58
17.79
18.17
19.32
20.58
21.36
21.34
20.54
19.29
17.80
16.07
13.84
10.84
6.92
2.23
-2.89
-8.16
-13.37
-18.48
-23.47
-28.43
-33.48
-38.81
-44.68
-51.12
-57.75
-63.57
-67.25
-67.49
-63.52
-55.48
-44.27
-31.29
-17.90
-5.10
6.53
16.68
25.07
31.42
35.42
37.14
37.05
36.00
34.98
34.69
35.25
36.25
37.03
36.98
35.91
34.09
32.08
30.34
28.98
27.64
25.65
22.34
17.37
10.94
3.75
-3.33
-9.48
-14.33
-18.08
-21.31
-24.82
-29.27
-35.11
-42.36
-50.57
-58.75
-65.46
-69.09
-68.34
-62.70
-52.69
-39.80
-25.96
-12.91
-1.63
7.77
15.72
22.80
29.19
34.65
38.66
40.78
41.06
40.00
38.43
37.10
36.39
36.17
35.97
35.36
34.06
32.17
29.96
27.74
25.61
23.50
21.18
18.40
15.07
11.19
6.90
2.34
-2.35
-7.10
-11.80
-16.35
-20.66
-24.72
-28.71
-32.99
-38.01
-44.05
-50.93
-57.91
-63.68
-66.81
-66.11
-61.08
-52.07
-40.23
-27.11
-14.32
-2.99
6.28
13.49
18.94
23.02
26.00
28.01
29.10
29.36
28.96
28.20
27.42
26.83
26.46
26.16
25.72
25.03
24.15
23.30
22.63
22.05
21.17
19.52
16.66
12.56
7.56
2.29
-2.71
-7.17
-11.28
-15.53
-20.48
-26.59
-33.90
-41.89
-49.40
-54.89
-56.84
-54.31
-47.31
-36.81
-24.40
-11.67
0.16
10.45
19.00
25.76
30.62
33.50
34.44
33.76
32.15
30.36
29.02
28.42
28.41
28.61
28.54
27.87
26.59
24.92
23.18
21.57
20.00
18.12
15.47
11.77
7.00
1.55
-4.02
-9.16
-13.59
-17.38
-20.94
-24.87
-29.77
-36.01
-43.49
-51.46
-58.60
-63.21
-63.72
-59.24
-49.92
-37.05
-22.54
-8.33
4.26
14.75
23.37
30.65
36.99
42.44
46.77
49.73
51.29
51.73
51.49
51.09
50.91
51.17
51.88
52.93
54.05
54.99
55.63
56.07
56.55
57.25
58.01
58.25
56.95
52.94
45.08
32.46
14.59
-8.35
-35.20
-63.66
-90.58
-112.77
-128.01
-135.78
-137.28
-134.68
-130.00
-124.44
-118.21
-111.09
-103.12
-94.83
-86.86
-79.26
-71.07
-60.57
-46.03
-26.73
-3.30
22.45
48.19
71.76
91.54
106.48
116.03
120.16
119.44
115.03
108.46
101.27
94.56
88.82
84.11
80.35
77.39
74.85
71.97
67.62
60.70
50.71
38.18
24.55
11.67
0.96
-7.05
-12.81
-17.39
-22.02
-27.57
-34.44
-42.44
-50.94
-58.94
-65.24
-68.79
-68.87
-65.32
-58.51
-49.10
-37.73
-24.81
-10.55
4.69
20.08
34.20
45.29
51.76
52.83
48.91
41.52
32.80
24.83
19.07
16.12
15.71
17.06
19.02
20.24
19.39
15.32
7.35
-4.44
-19.15
-35.25
-50.91
-64.49
-74.92
-81.85
-85.56
-86.72
-86.21
-84.90
-83.61
-83.05
-83.65
-85.38
-87.45
-88.28
-85.79
-78.08
-64.15
-44.48
-21.01
3.41
26.03
44.86
59.00
68.40
73.47
74.72
72.74
68.35
62.60
56.62
51.43
47.46
44.57
42.17
39.54
36.17
32.01
27.43
23.06
19.51
17.08
15.69
14.92
14.22
13.06
11.11
8.15
4.09
-1.17
-7.63
-15.23
-23.79
-33.09
-42.91
-52.96
-62.77
-71.45
-77.64
-79.65
-75.83
-65.15
-47.56
-24.26
2.42
29.45
53.67
72.45
84.19
88.63
86.71
80.20
71.18
61.60
52.82
45.63
40.32
36.84
34.95
34.32
34.54
35.17
35.81
36.19
36.24
36.05
35.74
35.36
34.80
33.85
32.32
30.08
27.07
23.20
18.31
12.23
4.81
-3.91
-13.62
-23.71
-33.29
-41.23
-46.40
-47.89
-45.32
-38.98
-29.94
-19.67
-9.69
-1.21
5.10
9.03
10.71
10.40
8.45
5.25
1.29
-2.93
-6.92
-10.43
-13.45
-16.23
-19.10
-22.28
-25.68
-28.96
-31.67
-33.48
-34.36
-34.62
-34.75
-35.18
-36.10
-37.42
-38.91
-40.29
-41.43
-42.37
-43.35
-44.68
-46.76
-49.95
-54.50
-60.36
-67.06
-73.62
-78.78
-81.21
-79.95
-74.71
-65.96
-54.84
-42.70
-30.81
-19.99
-10.51
-2.25
5.02
11.47
17.07
21.63
24.91
26.80
27.43
27.14
26.48
25.94
25.85
26.27
27.00
27.71
28.08
27.86
26.95
25.34
23.07
20.19
16.83
13.13
9.27
5.45
1.75
-1.89
-5.78
-10.34
-15.91
-22.56
-29.85
-36.81
-42.19
-44.76
-43.70
-38.84
-30.68
-20.25
-8.82
2.39
12.42
20.69
27.02
31.58
34.70
36.70
37.82
38.15
37.72
36.66
35.29
34.05
33.32
33.24
33.59
33.88
33.56
32.33
30.22
27.56
24.74
21.96
19.15
16.05
12.36
7.93
2.77
-2.94
-9.06
-15.44
-22.06
-28.84
-35.68
-42.27
-47.95
-51.82
-52.89
-50.34
-43.90
-33.96
-21.56
-7.99
5.54
18.16
29.36
38.76
45.88
50.19
51.21
48.95
44.03
37.72
31.44
26.36
23.05
21.31
20.45
19.70
18.49
16.69
14.46
11.98
9.28
6.20
2.56
-1.66
-6.17
-10.52
-14.36
-17.60
-20.49
-23.45
-26.81
-30.73
-35.09
-39.84
-45.02
-50.82
-57.24
-63.81
-69.40
-72.51
-71.75
-66.45
-56.94
-44.51
-30.83
-17.43
-5.31
5.16
14.03
21.46
27.53
32.14
35.21
36.76
37.05
36.58
36.01
35.86
36.37
37.37
38.37
38.81
38.35
37.02
35.06
32.84
30.55
28.23
25.75
23.00
19.88
16.33
12.36
7.99
3.34
-1.37
-5.87
-9.95
-13.66
-17.28
-21.23
-25.93
-31.62
-38.35
-45.83
-53.49
-60.35
-65.13
-66.50
-63.45
-55.71
-43.94
-29.61
-14.60
-0.68
10.99
19.97
26.49
31.11
34.49
37.09
39.10
40.45
40.98
40.60
39.46
37.94
36.45
35.31
34.64
34.33
34.14
33.87
33.32
32.30
30.67
28.31
25.22
21.56
17.58
13.59
9.82
6.33
3.02
-0.27
-3.66
-7.24
-11.02
-14.99
-19.08
-23.23
-27.45
-31.87
-36.79
-42.52
-49.14
-56.19
-62.66
-67.11
-68.11
-64.83
-57.28
-46.36
-33.56
-20.41
-8.09
2.81
12.10
19.86
26.16
30.97
34.19
35.82
36.06
35.30
34.05
32.79
31.87
31.44
31.46
31.74
32.02
32.09
31.81
31.12
30.07
28.63
26.70
24.13
20.73
16.45
11.52
6.34
1.44
-2.71
-5.95
-8.41
-10.53
-12.89
-16.10
-20.67
-26.80
-34.23
-42.14
-49.17
-53.78
-54.67
-51.25
-43.85
-33.55
-21.80
-9.96
1.03
10.65
18.76
25.30
30.20
33.41
34.91
34.93
33.87
32.31
30.77
29.62
28.99
28.73
28.61
28.39
27.91
27.12
26.02
24.61
22.90
20.83
18.37
15.48
12.13
8.34
4.16
-0.21
-4.54
-8.62
-12.37
-15.99
-19.77
-24.13
-29.33
-35.46
-42.34
-49.46
-56.05
-61.00
-63.17
-61.60
-55.92
-46.55
-34.65
-21.75
-9.28
1.81
11.12
18.71
24.72
29.21
32.14
33.41
33.13
31.68
29.65
27.75
26.52
26.18
26.57
27.25
27.72
27.62
26.87
25.61
24.04
22.17
19.79
16.59
12.33
7.07
1.22
-4.61
-9.89
-14.33
-17.92
-21.01
-24.09
-27.76
-32.51
-38.61
-45.92
-53.74
-60.90
-65.95
-67.62
-65.14
-58.56
-48.65
-36.64
-23.92
-11.66
-0.63
8.78
16.51
22.66
27.39
30.82
33.02
34.10
34.23
33.69
32.85
32.06
31.53
31.22
30.90
30.30
29.22
27.67
25.89
24.12
22.52
20.95
19.05
16.32
12.43
7.40
1.63
-4.22
-9.50
-13.86
-17.40
-20.58
-24.07
-28.42
-33.92
-40.47
-47.52
-54.17
-59.31
-61.79
-60.76
-55.86
-47.48
-36.56
-24.40
-12.34
-1.39
7.85
15.18
20.66
24.43
26.67
27.57
27.45
26.71
25.81
25.17
25.02
25.30
25.75
26.03
25.86
25.16
23.96
22.34
20.33
17.85
14.86
11.38
7.61
3.80
0.25
-2.95
-5.92
-9.04
-12.78
-17.50
-23.35
-30.14
-37.34
-44.16
-49.64
-52.77
-52.68
-48.92
-41.59
-31.47
-19.86
-8.31
1.96
10.27
16.58
21.24
24.57
26.72
27.60
27.15
25.56
23.39
21.37
20.17
20.08
20.86
21.99
22.82
22.91
22.12
20.54
18.42
15.88
13.01
9.78
6.22
2.36
-1.67
-5.88
-10.42
-15.65
-21.93
-29.23
-36.94
-43.75
-47.92
-47.91
-42.92
-33.35
-20.64
-6.81
6.24
17.23
25.74
31.94
36.29
39.16
40.76
41.18
40.51
38.89
36.59
33.97
31.45
29.38
27.95
27.08
26.37
25.27
23.32
20.33
16.48
12.11
7.55
2.96
-1.60
-6.13
-10.57
-14.88
-19.19
-23.86
-29.40
-36.11
-43.76
-51.42
-57.67
-61.03
-60.49
-55.87
-47.81
-37.52
-26.30
-15.24
-5.05
3.90
11.50
17.70
22.49
25.91
28.02
28.96
28.87
28.01
26.62
25.01
23.46
22.16
21.14
20.27
19.30
18.04
16.43
14.51
12.40
10.19
7.88
5.35
2.47
-0.91
-4.89
-9.54
-14.93
-21.13
-28.10
-35.52
-42.68
-48.47
-51.56
-50.86
-45.86
-36.95
-25.41
-12.99
-1.42
8.21
15.60
21.14
25.50
29.19
32.33
34.72
36.09
36.31
35.57
34.21
32.57
30.84
29.12
27.41
25.78
24.34
23.09
21.87
20.36
18.19
15.18
11.40
7.23
3.16
-0.44
-3.58
-6.65
-10.25
-15.08
-21.48
-29.34
-37.93
-46.03
-52.21
-55.20
-54.20
-49.11
-40.58
-29.79
-18.13
-6.89
3.00
11.03
17.13
21.45
24.22
25.68
26.05
25.58
24.53
23.20
21.87
20.77
20.01
19.56
19.25
18.82
18.03
16.76
15.04
13.04
10.88
8.54
5.81
2.40
-1.90
-7.05
-12.87
-19.07
-25.45
-31.88
-38.11
-43.64
-47.59
-48.90
-46.78
-41.02
-32.20
-21.47
-10.23
0.36
9.57
17.17
23.26
28.02
31.60
33.95
34.93
34.48
32.78
30.25
27.57
25.42
24.21
23.91
24.13
24.28
23.88
22.74
20.89
18.48
15.55
12.09
8.01
3.45
-1.25
-5.66
-9.44
-12.66
-15.80
-19.60
-24.63
-30.95
-37.83
-43.98
-47.84
-48.24
-44.74
-37.75
-28.32
-17.72
-7.03
3.06
12.23
20.31
27.07
32.22
35.48
36.84
36.60
35.37
33.83
32.48
31.47
30.63
29.70
28.50
27.07
25.63
24.36
23.23
21.91
19.90
16.81
12.59
7.60
2.40
-2.40
-6.55
-10.12
-13.43
-16.88
-20.83
-25.61
-31.40
-38.22
-45.74
-53.09
-58.96
-61.88
-60.72
-55.24
-46.16
-34.99
-23.46
-12.95
-4.22
2.70
8.16
12.56
16.18
19.07
21.21
22.59
23.32
23.53
23.35
22.77
21.72
20.21
18.38
16.49
14.87
13.71
12.91
12.10
10.73
8.38
4.91
0.55
-4.21
-8.79
-12.78
-16.10
-18.99
-21.97
-25.60
-30.34
-36.27
-43.03
-49.72
-55.15
-58.01
-57.28
-52.51
-44.02
-32.86
-20.49
-8.43
2.21
10.95
17.85
23.34
27.80
31.36
33.89
35.20
35.29
34.41
33.06
31.66
30.47
29.48
28.54
27.50
26.33
25.07
23.70
22.16
20.25
17.84
14.94
11.69
8.33
5.04
1.83
-1.43
-5.00
-9.19
-14.24
-20.31
-27.39
-35.17
-42.92
-49.55
-53.81
-54.64
-51.60
-45.05
-36.12
-26.40
-17.40
-10.12
-4.91
-1.59
0.28
1.05
0.87
-0.36
-2.82
-6.56
-11.50
-17.24
-23.22
-28.74
-33.17
-36.11
-37.46
-37.49
-36.68
-35.49
-34.09
-32.24
-29.41
-25.04
-18.92
-11.36
-3.19
4.48
10.40
13.53
13.18
9.17
2.02
-6.88
-15.41
-21.11
-22.01
-17.39
-8.03
4.05
16.43
27.17
35.34
41.01
44.81
47.17
47.90
46.25
41.35
32.96
21.96
10.09
-0.75
-9.49
-16.52
-23.52
-32.29
-43.25
-54.52
-62.02
-61.19
-49.08
-26.01
4.49
36.97
65.99
87.64
99.98
102.58
95.63
79.41
54.36
21.73
-15.69
-53.14
-84.39
-103.06
-104.21
-85.91
-49.73
-0.47
54.93
108.58
152.89
181.56
190.79
180.38
154.37
120.40
87.70
64.18
53.94
56.64
68.84
86.31
105.99
126.45
146.69
164.83
177.64
181.55
174.37
156.62
131.47
103.62
77.30
55.07
37.44
23.33
10.99
-1.19
-14.35
-29.09
-45.42
-62.89
-80.59
-97.18
-111.16
-121.06
-125.85
-125.10
-119.29
-109.63
-97.88
-85.96
-75.44
-67.32
-61.99
-59.56
-60.05
-63.60
-70.12
-79.07
-89.13
-98.37
-104.68
-106.37
-102.65
-93.72
-80.61
-64.81
-47.90
-31.42
-16.93
-6.25
-1.33
-3.61
-13.17
-27.90
-43.69
-55.60
-59.61
-54.23
-41.02
-23.72
-6.58
7.23
16.34
20.88
21.71
19.82
16.32
12.72
11.07
13.59
21.94
36.47
55.99
77.87
98.58
114.50
122.88
122.62
114.78
102.27
88.84
77.82
70.89
67.96
67.71
68.74
70.40
72.98
77.29
83.84
92.24
101.07
108.20
111.43
109.09
100.58
86.60
69.14
50.94
34.81
22.82
15.80
13.32
14.06
16.40
18.83
20.21
19.81
17.19
12.23
5.22
-3.14
-11.67
-18.99
-23.91
-25.86
-25.09
-22.65
-19.98
-18.45
-18.91
-21.39
-25.16
-29.13
-32.29
-34.20
-35.11
-35.75
-36.96
-39.25
-42.62
-46.72
-51.10
-55.45
-59.63
-63.45
-66.50
-68.17
-67.90
-65.55
-61.82
-58.14
-56.36
-58.17
-64.63
-75.86
-91.12
-109.09
-128.22
-147.09
-164.59
-180.00
-193.04
-203.96
-213.45
-222.35
-231.20
-239.66
-246.45
-249.67
-247.82
-240.52
-228.84
-214.74
-199.94
-184.90
-168.47
-148.70
-124.18
-95.17
-63.90
-33.80
-8.24
10.77
23.01
29.66
32.46
32.79
31.39
28.32
23.57
17.40
10.52
3.90
-1.52
-5.18
-6.84
-6.49
-4.13
0.36
7.18
16.38
27.64
40.24
52.97
64.52
73.70
79.83
82.85
83.32
82.09
80.04
77.75
75.47
73.23
70.96
68.70
66.68
65.17
64.41
64.53
65.39
66.61
67.64
67.90
66.89
64.27
59.83
53.59
45.83
37.07
27.99
19.22
11.03
3.31
-4.20
-11.45
-17.68
-21.40
-20.86
-14.87
-3.45
11.98
28.96
44.79
57.22
65.07
68.30
67.81
65.16
62.06
59.80
59.18
60.38
63.29
67.70
73.67
81.66
92.24
105.68
121.33
137.26
150.36
156.92
153.76
139.36
114.56
82.42
47.27
13.46
-15.70
-38.33
-53.80
-62.32
-64.63
-61.99
-56.12
-48.85
-41.47
-33.98
-25.14
-13.13
3.37
24.01
46.62
68.07
85.62
98.17
106.42
112.16
117.12
122.07
126.64
129.79
130.34
127.25
119.71
107.04
88.98
66.03
39.87
13.09
-11.58
-32.03
-47.60
-58.90
-67.33
-74.25
-80.58
-86.84
-93.33
-100.38
-108.03
-115.95
-123.22
-128.90
-132.59
-134.77
-136.54
-138.70
-141.05
-142.00
-139.37
-131.47
-118.19
-101.16
-83.15
-66.94
-54.40
-46.12
-41.72
-40.37
-41.25
-43.77
-47.51
-52.02
-56.75
-60.85
-63.31
-63.20
-60.07
-54.25
-46.93
-39.77
-34.21
-30.87
-29.28
-28.17
-26.01
-21.74
-15.12
-6.80
1.92
9.42
14.08
14.71
10.89
3.19
-6.72
-16.44
-23.40
-25.61
-22.17
-13.37
-0.42
15.07
31.50
47.55
62.14
74.31
83.27
88.42
89.69
87.67
83.59
79.03
75.38
73.41
73.02
73.29
72.94
70.88
66.53
59.96
51.70
42.41
32.59
22.56
12.50
2.66
-6.58
-14.72
-21.32
-26.17
-29.29
-30.84
-30.84
-29.06
-24.99
-18.13
-8.35
3.86
17.34
30.52
41.95
50.77
56.75
60.17
61.40
60.53
57.36
51.77
44.01
35.04
26.27
19.16
14.64
12.78
12.88
13.88
14.75
14.87
14.07
12.43
9.91
6.32
1.33
-5.25
-13.30
-22.31
-31.58
-40.51
-48.65
-55.74
-61.45
-65.18
-66.11
-63.43
-56.82
-46.74
-34.53
-21.93
-10.59
-1.57
4.83
8.81
10.89
11.54
11.16
10.15
9.01
8.33
8.63
10.17
12.80
16.10
19.50
22.57
25.12
27.12
28.52
29.09
28.49
26.29
22.26
16.56
9.59
1.91
-6.10
-14.34
-22.93
-31.76
-40.24
-47.07
-50.63
-49.59
-43.52
-33.23
-20.49
-7.37
4.41
13.92
20.89
25.45
27.71
27.75
25.82
22.45
18.63
15.41
13.65
13.65
15.15
17.54
20.18
22.64
24.72
26.40
27.61
28.20
27.91
26.46
23.68
19.44
13.68
6.30
-2.71
-13.16
-24.39
-35.17
-43.91
-49.03
-49.49
-45.15
-36.84
-26.00
-14.25
-2.88
7.28
15.83
22.59
27.34
29.82
29.81
27.33
22.86
17.36
12.07
8.13
6.20
6.28
7.71
9.57
11.00
11.61
11.41
10.69
9.67
8.33
6.38
3.44
-0.69
-5.82
-11.39
-16.55
-20.34
-21.93
-20.86
-17.18
-11.51
-4.91
1.40
6.31
9.18
9.93
8.95
6.86
4.28
1.60
-0.94
-3.20
-4.96
-5.95
-6.01
-5.22
-4.02
-3.00
-2.66
-3.05
-3.74
-3.99
-3.13
-0.99
1.95
4.66
5.90
4.70
0.56
-6.35
-15.30
-25.08
-34.23
-41.30
-45.12
-44.98
-40.83
-33.27
-23.33
-12.29
-1.28
8.74
17.19
23.65
27.92
29.99
30.07
28.77
27.00
25.82
26.12
28.30
32.07
36.47
40.24
42.15
41.39
37.75
31.64
23.88
15.44
7.16
-0.35
-6.86
-12.32
-16.73
-19.92
-21.52
-21.08
-18.28
-13.23
-6.57
0.71
7.56
13.22
17.36
20.02
21.39
21.56
20.45
17.91
13.84
8.49
2.33
-3.92
-9.74
-14.82
-19.13
-22.74
-25.61
-27.58
-28.37
-27.79
-25.91
-23.07
-19.77
-16.60
-14.12
-12.87
-13.35
-15.92
-20.52
-26.49
-32.59
-37.24
-39.08
-37.43
-32.53
-25.38
-17.23
-9.22
-2.01
4.03
8.72
11.86
13.28
13.07
11.66
9.85
8.53
8.28
9.12
10.50
11.58
11.57
10.13
7.36
3.76
-0.13
-3.97
-7.68
-11.38
-15.26
-19.45
-23.90
-28.40
-32.55
-35.80
-37.60
-37.43
-35.05
-30.61
-24.63
-17.89
-11.22
-5.29
-0.48
3.09
5.45
6.69
6.90
6.26
5.04
3.57
2.18
1.10
0.37
-0.10
-0.50
-0.95
-1.42
-1.81
-1.88
-1.54
-0.97
-0.60
-1.04
-2.89
-6.45
-11.42
-16.99
-21.93
-25.11
-25.82
-23.93
-19.85
-14.27
-7.83
-1.11
5.44
11.35
16.12
19.34
20.80
20.54
18.81
15.98
12.44
8.55
4.64
1.01
-2.18
-4.91
-7.35
-9.71
-12.11
-14.55
-16.91
-19.08
-21.08
-23.07
-25.30
-28.01
-31.27
-34.91
-38.53
-41.50
-43.03
-42.31
-38.69
-31.91
-22.20
-10.37
2.42
14.92
26.15
35.53
42.86
48.22
51.75
53.58
53.86
52.89
51.15
49.23
47.63
46.49
45.57
44.31
42.09
38.51
33.54
27.45
20.64
13.50
6.41
-0.21
-5.78
-9.52
-10.57
-8.20
-1.98
8.05
21.42
37.28
54.48
71.68
87.51
100.81
110.83
117.41
120.88
121.80
120.64
117.62
112.79
106.32
98.73
90.95
83.99
78.60
74.94
72.61
71.01
69.75
68.86
68.75
69.76
71.69
73.47
73.26
68.92
58.83
42.57
21.39
-1.99
-24.00
-41.36
-51.88
-55.10
-51.96
-44.39
-34.45
-23.87
-13.83
-5.02
2.20
7.68
11.38
13.27
13.15
10.45
4.37
-5.87
-20.49
-38.80
-59.22
-79.65
-98.19
-113.59
-125.43
-133.88
-139.38
-142.41
-143.58
-143.72
-143.92
-145.27
-148.38
-152.93
-157.49
-159.85
-157.73
-149.72
-135.84
-117.56
-97.19
-76.94
-58.29
-41.79
-27.60
-15.91
-7.39
-2.78
-2.41
-5.87
-12.08
-19.91
-28.56
-37.57
-46.16
-52.75
-55.24
-52.02
-43.15
-30.76
-18.22
-8.59
-3.28
-1.75
-2.48
-4.34
-7.49
-13.05
-22.17
-34.81
-49.60
-64.25
-76.65
-85.51
-90.43
-91.50
-88.83
-82.48
-72.57
-59.62
-44.40
-27.96
-11.28
4.91
20.14
34.17
46.96
58.57
69.12
78.60
86.76
93.03
96.77
97.46
94.98
89.68
82.18
73.15
63.13
52.48
41.56
30.82
20.80
11.94
4.45
-1.86
-7.51
-13.12
-19.24
-26.08
-33.35
-40.31
-45.87
-48.82
-48.27
-43.81
-35.82
-25.26
-13.41
-1.48
9.59
19.19
26.91
32.42
35.52
36.31
35.24
33.12
30.84
29.09
28.10
27.73
27.61
27.44
27.08
26.47
25.48
23.78
21.05
17.15
12.37
7.32
2.71
-1.06
-4.16
-7.28
-11.39
-17.25
-25.07
-34.36
-43.96
-52.31
-57.84
-59.37
-56.42
-49.24
-38.88
-26.77
-14.38
-2.83
7.21
15.45
21.84
26.38
29.12
30.21
30.06
29.25
28.30
27.60
27.19
26.95
26.74
26.53
26.35
26.29
26.15
25.56
23.99
21.08
16.84
11.73
6.51
1.86
-1.82
-4.73
-7.60
-11.31
-16.66
-23.93
-32.68
-41.79
-49.66
-54.51
-54.72
-49.30
-38.39
-23.36
-6.58
9.26
21.96
30.61
35.64
38.39
40.32
42.32
44.42
46.11
46.82
46.35
44.99
43.36
42.03
41.23
40.83
40.42
39.58
38.00
35.66
32.77
29.65
26.49
23.29
19.84
15.88
11.31
6.22
0.87
-4.63
-10.40
-16.82
-24.17
-32.25
-40.07
-45.98
-48.25
-45.72
-38.38
-27.41
-14.62
-1.85
9.69
19.45
27.42
33.63
38.03
40.46
41.05
40.27
38.91
37.75
37.23
37.33
37.65
37.71
37.16
36.03
34.48
32.74
30.92
28.95
26.63
23.73
20.02
15.33
9.61
2.97
-4.27
-11.65
-18.61
-24.79
-30.03
-34.56
-38.87
-43.44
-48.43
-53.41
-57.37
-59.02
-57.34
-52.02
-43.59
-33.22
-22.25
-11.71
-2.15
6.30
13.57
19.55
24.06
27.02
28.68
29.52
30.13
30.95
32.15
33.70
35.43
37.11
38.42
38.98
38.44
36.57
33.49
29.49
24.96
20.18
15.28
10.28
5.26
0.38
-4.18
-8.41
-12.59
-17.21
-22.83
-29.68
-37.49
-45.37
-51.95
-55.83
-55.84
-51.53
-43.26
-32.20
-19.85
-7.65
3.44
13.05
21.23
28.15
33.84
38.12
40.70
41.44
40.57
38.69
36.66
35.27
34.89
35.40
36.27
36.82
36.48
35.01
32.40
28.77
24.32
19.25
13.87
8.51
3.43
-1.39
-6.32
-11.93
-18.62
-26.22
-33.91
-40.29
-43.94
-43.90
-39.92
-32.54
-22.84
-12.12
-1.57
7.85
15.54
21.22
24.81
26.42
26.24
24.62
22.00
18.98
16.14
13.95
12.58
11.87
11.43
10.81
9.67
7.84
5.34
2.33
-1.01
-4.51
-8.10
-11.80
-15.79
-20.26
-25.31
-30.83
-36.38
-41.35
-44.98
-46.58
-45.66
-42.02
-35.79
-27.48
-17.83
-7.69
2.14
11.08
18.79
25.17
30.22
33.85
35.90
36.15
34.47
31.10
26.64
22.07
18.36
16.19
15.70
16.40
17.41
17.88
17.29
15.58
13.10
10.24
7.22
3.97
0.23
-4.22
-9.49
-15.55
-22.26
-29.37
-36.51
-42.97
-47.74
-49.67
-47.86
-42.01
-32.71
-21.30
-9.38
1.68
11.07
18.65
24.69
29.55
33.45
36.37
38.15
38.60
37.71
35.68
32.91
29.90
27.09
24.75
22.84
21.15
19.38
17.24
14.61
11.45
7.83
3.85
-0.31
-4.41
-8.24
-11.68
-14.83
-18.01
-21.72
-26.41
-32.17
-38.52
-44.32
-48.10
-48.42
-44.48
-36.37
-25.11
-12.28
0.55
12.28
22.48
31.29
39.04
45.96
52.00
56.86
60.21
61.92
62.17
61.41
60.22
59.13
58.36
57.84
57.23
56.11
54.20
51.34
47.58
42.99
37.59
31.39
24.44
16.85
8.85
0.76
-7.08
-14.34
-20.69
-25.94
-30.08
-33.29
-36.01
-38.81
-42.20
-46.63
-52.29
-59.19
-67.06
-75.30
-82.95
-88.76
-91.49
-90.29
-84.95
-76.05
-64.69
-52.19
-39.62
-27.70
-16.73
-6.84
1.96
9.54
15.81
20.71
24.28
26.72
28.29
29.28
29.93
30.43
30.83
31.24
31.75
32.53
33.74
35.35
37.06
38.26
38.32
36.78
33.70
29.68
25.61
22.32
20.16
18.93
17.97
16.56
14.23
10.85
6.66
1.93
-3.06
-8.22
-13.49
-18.78
-24.01
-29.10
-34.11
-39.35
-45.20
-51.93
-59.35
-66.65
-72.46
-75.20
-73.62
-67.27
-56.75
-43.43
-29.08
-15.26
-3.00
7.30
15.70
22.43
27.66
31.49
34.00
35.34
35.74
35.45
34.76
33.86
32.94
32.10
31.45
30.99
30.65
30.38
30.18
30.02
29.90
29.64
28.99
27.68
25.53
22.62
19.21
15.68
12.34
9.34
6.64
4.08
1.46
-1.35
-4.43
-7.80
-11.44
-15.29
-19.27
-23.31
-27.46
-31.79
-36.43
-41.57
-47.36
-53.85
-60.85
-67.82
-73.81
-77.63
-78.08
-74.45
-66.80
-55.96
-43.27
-30.13
-17.61
-6.29
3.66
12.26
19.51
25.33
29.64
32.48
34.09
34.87
35.27
35.57
35.88
36.13
36.16
35.90
35.41
34.85
34.41
34.12
33.85
33.39
32.46
30.89
28.57
25.43
21.45
16.66
11.26
5.60
0.09
-5.01
-9.68
-14.10
-18.54
-23.16
-27.92
-32.63
-37.07
-41.08
-44.56
-47.48
-49.78
-51.51
-52.87
-54.31
-56.35
-59.33
-63.13
-67.03
-69.85
-70.32
-67.50
-61.09
-51.52
-39.81
-27.24
-15.01
-4.00
5.42
13.32
20.05
25.97
31.24
35.73
39.15
41.34
42.36
42.61
42.60
42.70
42.99
43.27
43.25
42.76
41.88
40.84
39.86
38.96
37.96
36.47
34.15
30.88
26.85
22.48
18.24
14.50
11.29
8.37
5.35
1.86
-2.23
-6.76
-11.38
-15.75
-19.62
-23.01
-26.17
-29.48
-33.37
-38.20
-44.15
-51.11
-58.54
-65.44
-70.54
-72.51
-70.41
-64.05
-54.07
-41.83
-28.99
-16.99
-6.73
1.60
8.33
14.02
19.12
23.85
28.14
31.77
34.52
36.26
37.00
36.79
35.80
34.18
32.17
30.06
28.22
27.02
26.61
26.80
27.07
26.77
25.33
22.60
18.87
14.74
10.84
7.53
4.76
2.20
-0.63
-4.06
-8.20
-12.92
-17.91
-22.81
-27.35
-31.42
-35.15
-38.95
-43.30
-48.60
-54.76
-61.15
-66.59
-69.62
-69.03
-64.29
-55.70
-44.31
-31.55
-18.81
-7.08
3.14
11.80
19.01
24.94
29.69
33.32
35.93
37.69
38.83
39.52
39.95
40.15
40.14
39.85
39.25
38.38
37.28
36.06
34.73
33.23
31.39
29.09
26.26
22.98
19.38
15.50
11.29
6.61
1.43
-4.07
-9.45
-14.26
-18.25
-21.56
-24.67
-28.26
-32.86
-38.77
-45.88
-53.66
-61.18
-67.26
-70.60
-70.13
-65.40
-56.72
-45.17
-32.26
-19.47
-7.96
1.71
9.49
15.67
20.64
24.71
27.96
30.39
31.97
32.85
33.36
33.91
34.78
35.93
37.03
37.59
37.18
35.71
33.32
30.40
27.32
24.28
21.34
18.46
15.57
12.51
9.12
5.14
0.40
-5.10
-11.08
-17.03
-22.40
-26.86
-30.48
-33.73
-37.35
-41.85
-47.26
-52.91
-57.58
-59.82
-58.44
-52.94
-43.66
-31.66
-18.38
-5.27
6.60
16.63
24.71
31.10
36.13
40.08
43.07
45.05
45.97
45.85
44.88
43.34
41.57
39.73
37.88
35.96
33.93
31.82
29.69
27.62
25.55
23.31
20.60
17.19
12.97
7.96
2.42
-3.29
-8.78
-13.72
-17.96
-21.57
-24.83
-28.23
-32.35
-37.63
-44.21
-51.75
-59.29
-65.43
-68.64
-67.77
-62.41
-53.07
-41.00
-27.85
-15.10
-3.69
6.01
14.18
21.18
27.33
32.70
37.14
40.44
42.35
42.89
42.28
40.98
39.47
38.11
37.03
36.10
35.13
33.95
32.60
31.20
29.88
28.54
26.80
24.10
20.00
14.51
8.16
1.77
-3.92
-8.64
-12.68
-16.71
-21.41
-27.22
-34.20
-42.09
-50.42
-58.51
-65.50
-70.27
-71.67
-68.88
-61.71
-50.89
-37.82
-24.15
-11.23
0.20
10.03
18.54
26.01
32.62
38.24
42.62
45.61
47.29
47.93
47.88
47.48
46.92
46.30
45.57
44.68
43.57
42.19
40.53
38.50
36.02
32.95
29.22
24.81
19.73
14.02
7.75
1.07
-5.82
-12.62
-19.05
-25.00
-30.57
-36.09
-41.99
-48.74
-56.61
-65.56
-75.04
-84.02
-91.01
-94.42
-93.01
-86.32
-75.02
-60.66
-45.20
-30.37
-17.19
-5.91
3.67
11.82
18.55
23.68
27.08
28.87
29.46
29.40
29.16
29.01
29.03
29.23
29.62
30.23
30.93
31.41
31.25
30.11
27.89
24.79
21.24
17.66
14.29
11.09
7.84
4.24
0.08
-4.74
-10.09
-15.70
-21.20
-26.26
-30.74
-34.81
-38.95
-43.80
-49.79
-56.87
-64.36
-70.97
-75.22
-75.81
-72.08
-64.17
-52.91
-39.51
-25.22
-11.15
1.86
13.20
22.49
29.58
34.51
37.59
39.25
40.01
40.34
40.61
41.03
41.62
42.24
42.58
42.32
41.16
39.09
36.36
33.39
30.65
28.31
26.24
24.09
21.41
17.91
13.57
8.65
3.50
-1.48
-6.16
-10.62
-15.18
-20.17
-25.95
-32.77
-40.67
-49.44
-58.43
-66.39
-71.58
-72.19
-67.05
-56.32
-41.62
-25.51
-10.52
1.83
11.43
19.11
25.87
32.11
37.52
41.50
43.79
44.81
45.40
46.35
47.83
49.40
50.25
49.79
47.88
44.89
41.43
38.10
35.20
32.73
30.45
27.98
24.96
21.24
16.86
12.14
7.54
3.41
-0.17
-3.52
-7.32
-12.34
-19.08
-27.42
-36.43
-44.51
-49.77
-50.65
-46.50
-37.78
-25.95
-12.93
-0.54
10.09
18.58
25.08
29.98
33.55
35.89
37.01
36.99
36.02
34.44
32.55
30.52
28.45
26.34
24.22
22.14
20.20
18.48
16.96
15.54
14.01
12.13
9.71
6.70
3.17
-0.81
-5.15
-9.89
-15.10
-20.94
-27.52
-34.84
-42.62
-50.11
-56.17
-59.34
-58.30
-52.36
-41.84
-28.09
-13.05
1.33
13.75
23.65
31.19
36.76
40.70
43.15
44.13
43.76
42.33
40.34
38.26
36.36
34.62
32.75
30.44
27.56
24.25
20.87
17.73
14.92
12.19
9.18
5.57
1.30
-3.49
-8.61
-14.09
-20.19
-27.24
-35.34
-43.95
-51.87
-57.47
-59.21
-56.12
-48.26
-36.70
-23.17
-9.54
2.81
13.21
21.63
28.31
33.37
36.70
38.04
37.36
34.98
31.64
28.15
25.14
22.83
21.05
19.48
17.80
15.84
13.64
11.22
8.65
5.93
3.02
-0.17
-3.69
-7.62
-12.06
-17.12
-22.97
-29.70
-37.11
-44.56
-50.86
-54.50
-54.14
-49.14
-39.92
-27.92
-15.10
-3.19
6.75
14.60
20.79
25.82
29.88
32.67
33.74
32.81
30.16
26.57
23.07
20.41
18.77
17.74
16.54
14.53
11.48
7.74
3.88
0.47
-2.23
-4.38
-6.42
-8.89
-12.21
-16.69
-22.41
-29.22
-36.61
-43.70
-49.29
-52.12
-51.22
-46.24
-37.54
-26.14
-13.37
-0.57
11.18
21.07
28.63
33.60
35.95
35.91
34.02
31.03
27.71
24.71
22.33
20.56
19.12
17.57
15.55
12.81
9.35
5.38
1.24
-2.67
-6.05
-8.81
-11.16
-13.57
-16.72
-21.21
-27.38
-35.03
-43.20
-50.34
-54.68
-54.79
-50.07
-40.97
-28.78
-15.14
-1.56
10.94
21.78
30.64
37.27
41.34
42.63
41.10
37.15
31.49
25.10
18.96
13.81
10.00
7.40
5.57
3.99
2.35
0.64
-0.76
-1.51
-1.54
-1.26
-1.55
-3.38
-7.47
-13.96
-22.41
-31.85
-41.04
-48.67
-53.52
-54.66
-51.58
-44.47
-34.13
-21.85
-9.08
2.98
13.45
21.87
27.91
31.42
32.30
30.73
27.22
22.64
17.97
14.05
11.32
9.75
8.95
8.42
7.68
6.55
5.02
3.36
1.86
0.73
-0.06
-0.90
-2.35
-5.11
-9.66
-16.08
-23.86
-31.90
-38.74
-42.92
-43.37
-39.70
-32.23
-21.82
-9.62
3.27
15.90
27.51
37.36
44.77
49.15
50.17
48.07
43.61
37.97
32.35
27.64
24.15
21.67
19.67
17.69
15.53
13.27
11.05
8.93
6.76
4.24
1.12
-2.79
-7.58
-13.34
-20.18
-28.06
-36.52
-44.53
-50.64
-53.33
-51.62
-45.46
-35.72
-23.91
-11.57
0.13
10.54
19.40
26.54
31.72
34.71
35.45
34.23
31.69
28.63
25.74
23.40
21.58
20.01
18.31
16.25
13.78
11.02
8.18
5.38
2.62
-0.23
-3.38
-7.11
-11.67
-17.35
-24.29
-32.37
-41.06
-49.24
-55.44
-58.08
-56.09
-49.29
-38.50
-25.38
-11.75
0.93
11.94
21.14
28.72
34.73
38.96
41.05
40.78
38.41
34.65
30.51
26.87
24.23
22.55
21.37
20.11
18.28
15.67
12.33
8.53
4.62
0.87
-2.67
-6.23
-10.20
-15.04
-21.09
-28.53
-37.15
-46.31
-54.91
-61.46
-64.35
-62.18
-54.39
-41.56
-25.48
-8.63
6.56
18.53
26.87
32.15
35.31
37.06
37.59
36.75
34.43
30.89
26.88
23.29
20.75
19.40
18.82
18.31
17.34
15.65
13.37
10.73
7.94
4.97
1.72
-1.96
-6.16
-10.89
-16.24
-22.37
-29.41
-37.22
-45.11
-51.78
-55.71
-55.58
-50.89
-42.09
-30.46
-17.52
-4.65
7.32
17.94
26.99
34.18
39.14
41.50
41.22
38.75
35.04
31.23
28.29
26.64
26.05
25.77
24.98
23.14
20.24
16.68
13.01
9.67
6.76
4.05
1.13
-2.45
-7.10
-13.05
-20.34
-28.64
-37.17
-44.72
-49.85
-51.30
-48.30
-40.95
-30.10
-17.21
-3.93
8.37
18.83
27.10
33.28
37.44
39.64
39.83
38.13
35.01
31.30
27.99
25.78
24.79
24.43
23.74
21.90
18.57
14.04
9.04
4.27
0.08
-3.61
-7.18
-10.98
-15.23
-19.99
-25.30
-31.21
-37.68
-44.28
-50.00
-53.38
-52.92
-47.74
-38.02
-25.00
-10.62
3.19
15.05
24.34
31.00
35.25
37.35
37.53
36.13
33.63
30.62
27.68
25.16
23.19
21.67
20.42
19.23
17.94
16.44
14.71
12.73
10.41
7.61
4.15
-0.00
-4.67
-9.43
-13.82
-17.67
-21.29
-25.43
-30.90
-38.15
-46.84
-55.77
-63.15
-66.99
-65.66
-58.26
-44.95
-27.05
-6.77
13.23
30.54
43.56
51.88
56.05
57.13
56.14
53.69
50.10
45.51
40.16
34.47
28.99
24.27
20.57
17.92
15.92
14.04
11.77
8.78
5.10
1.04
-3.01
-6.81
-10.33
-13.77
-17.46
-21.66
-26.57
-32.27
-38.73
-45.65
-52.34
-57.71
-60.49
-59.64
-54.81
-46.61
-36.47
-26.32
-17.87
-12.17
-9.38
-8.84
-9.45
-10.21
-10.59
-10.56
-10.46
-10.59
-10.85
-10.72
-9.56
-7.07
-3.63
-0.28
1.78
1.76
-0.31
-3.66
-7.20
-10.14
-12.40
-14.45
-17.02
-20.68
-25.49
-31.06
-36.65
-41.34
-44.18
-44.28
-40.93
-33.83
-23.27
-10.14
4.25
18.59
31.82
43.33
52.98
60.73
66.49
69.93
70.63
68.37
63.39
56.56
49.19
42.68
37.94
35.16
33.77
32.78
31.19
28.47
24.68
20.23
15.56
10.82
5.74
-0.18
-7.40
-15.98
-25.52
-35.14
-43.79
-50.35
-54.04
-54.37
-51.22
-44.83
-35.68
-24.49
-12.23
-0.02
11.01
19.96
26.33
30.08
31.52
31.20
29.66
27.45
25.09
23.10
21.90
21.66
22.27
23.25
23.98
23.95
22.88
20.82
18.03
14.79
11.23
7.28
2.69
-2.80
-9.45
-17.24
-25.76
-34.20
-41.37
-45.90
-46.65
-43.00
-35.13
-24.01
-11.23
1.51
12.82
21.92
28.68
33.35
36.22
37.41
36.89
34.70
31.17
27.14
23.61
21.38
20.65
20.85
20.89
19.76
16.94
12.67
7.65
2.67
-1.85
-6.05
-10.43
-15.50
-21.54
-28.51
-36.19
-44.38
-52.95
-61.63
-69.82
-76.49
-80.30
-80.10
-75.33
-66.40
-54.54
-41.36
-28.32
-16.22
-5.20
5.11
14.98
24.36
32.67
39.10
42.92
43.94
42.55
39.63
36.20
33.07
30.59
28.76
27.30
25.93
24.47
22.80
20.76
18.18
14.85
10.68
5.78
0.50
-4.73
-9.60
-14.15
-18.80
-24.14
-30.69
-38.53
-47.02
-54.89
-60.52
-62.44
-59.78
-52.60
-41.79
-28.83
-15.29
-2.43
8.95
18.56
26.46
32.85
37.96
41.88
44.59
45.96
45.99
44.87
43.04
41.12
39.58
38.56
37.89
37.13
36.01
34.50
32.87
31.36
29.97
28.35
25.97
22.39
17.52
11.75
5.75
0.22
-4.35
-7.87
-10.63
-13.19
-16.21
-20.32
-25.91
-33.04
-41.30
-49.84
-57.39
-62.52
-63.91
-60.76
-53.12
-41.97
-28.95
-15.96
-4.52
4.64
11.62
17.12
21.95
26.62
31.21
35.38
38.72
40.93
42.03
42.30
42.14
41.91
41.85
42.06
42.51
43.09
43.62
43.90
43.72
42.88
41.28
38.96
36.07
32.88
29.55
26.18
22.60
18.48
13.50
7.42
0.32
-7.52
-15.68
-23.81
-31.73
-39.47
-47.20
-55.12
-63.39
-71.86
-80.07
-87.09
-91.71
-92.68
-89.16
-81.07
-69.17
-54.79
-39.45
-24.42
-10.50
1.91
12.63
21.49
28.38
33.36
36.65
38.76
40.27
41.64
43.08
44.49
45.59
46.07
45.77
44.74
43.22
41.50
39.84
38.26
36.57
34.39
31.37
27.37
22.59
17.49
12.64
8.36
4.64
1.19
-2.44
-6.59
-11.30
-16.41
-21.56
-26.47
-30.97
-35.05
-38.87
-42.74
-47.07
-52.32
-58.73
-66.11
-73.69
-80.14
-83.92
-83.73
-78.98
-69.94
-57.65
-43.63
-29.37
-16.01
-4.13
6.14
14.97
22.54
28.92
33.98
37.54
39.57
40.22
39.85
38.93
37.85
36.84
35.99
35.38
35.06
35.11
35.45
35.84
35.83
34.90
32.74
29.36
25.14
20.59
16.19
12.08
8.13
4.03
-0.53
-5.62
-11.10
-16.66
-21.99
-26.87
-31.25
-35.20
-38.96
-42.93
-47.57
-53.21
-59.77
-66.49
-71.98
-74.63
-73.19
-67.22
-57.29
-44.67
-30.92
-17.31
-4.65
6.61
16.26
24.13
30.13
34.27
36.79
38.07
38.50
38.37
37.81
36.88
35.66
34.32
33.17
32.52
32.56
33.18
34.02
34.49
33.97
32.13
29.02
25.10
20.93
16.97
13.28
9.62
5.62
1.11
-3.80
-8.79
-13.53
-17.92
-22.05
-26.11
-30.29
-34.63
-39.26
-44.34
-50.12
-56.62
-63.28
-68.92
-71.89
-70.72
-64.62
-53.93
-39.94
-24.53
-9.45
4.04
15.40
24.57
31.75
37.09
40.68
42.62
43.19
42.83
42.06
41.26
40.60
39.97
39.17
38.06
36.66
35.19
33.86
32.77
31.78
30.55
28.70
26.00
22.42
18.19
13.63
9.00
4.44
-0.09
-4.69
-9.45
-14.30
-19.07
-23.55
-27.63
-31.30
-34.73
-38.19
-42.07
-46.74
-52.52
-59.37
-66.74
-73.38
-77.57
-77.60
-72.35
-61.86
-47.32
-30.81
-14.52
-0.16
11.49
20.45
27.24
32.42
36.35
39.16
40.87
41.59
41.53
40.98
40.16
39.14
37.93
36.56
35.18
33.99
33.15
32.63
32.15
31.35
29.89
27.66
24.71
21.26
17.47
13.40
9.10
4.60
0.00
-4.56
-9.01
-13.38
-17.74
-22.10
-26.41
-30.58
-34.61
-38.77
-43.56
-49.45
-56.60
-64.46
-71.74
-76.64
-77.46
-73.17
-63.85
-50.65
-35.40
-20.02
-5.98
5.97
15.69
23.39
29.36
33.78
36.81
38.58
39.30
39.20
38.53
37.52
36.40
35.40
34.73
34.52
34.71
35.05
35.21
34.84
33.74
31.86
29.34
26.40
23.26
20.08
16.87
13.53
9.87
5.66
0.90
-4.28
-9.48
-14.27
-18.40
-21.88
-25.08
-28.57
-32.96
-38.59
-45.47
-53.14
-60.62
-66.62
-69.69
-68.64
-62.91
-52.83
-39.56
-24.81
-10.31
2.59
13.13
21.11
26.75
30.41
32.47
33.24
32.92
31.69
29.71
27.23
24.68
22.55
21.28
21.06
21.68
22.58
23.15
23.01
22.14
20.92
19.77
18.94
18.30
17.39
15.71
12.92
8.99
4.16
-1.17
-6.66
-12.09
-17.31
-22.22
-26.73
-30.77
-34.46
-38.20
-42.56
-48.13
-55.00
-62.49
-69.18
-73.15
-72.72
-67.06
-56.51
-42.45
-26.82
-11.46
2.31
13.82
22.96
29.86
34.76
37.92
39.61
40.16
39.89
39.09
38.01
36.90
35.99
35.48
35.42
35.65
35.74
35.25
33.91
31.82
29.36
27.00
25.00
23.21
21.12
18.18
14.05
8.81
2.89
-3.13
-8.79
-13.91
-18.56
-22.94
-27.28
-31.82
-36.82
-42.61
-49.48
-57.42
-65.84
-73.44
-78.44
-79.11
-74.41
-64.40
-50.32
-34.15
-18.01
-3.52
8.39
17.62
24.41
29.13
32.13
33.63
33.90
33.39
32.63
32.17
32.38
33.33
34.76
36.23
37.31
37.78
37.64
37.07
36.30
35.47
34.64
33.71
32.47
30.68
28.08
24.61
20.38
15.73
11.16
7.02
3.45
0.27
-2.95
-6.73
-11.51
-17.58
-25.00
-33.50
-42.33
-50.27
-55.78
-57.43
-54.43
-46.96
-36.17
-23.78
-11.52
-0.65
8.21
14.97
19.82
22.97
24.60
24.83
23.90
22.28
20.58
19.42
19.22
20.00
21.34
22.55
22.97
22.27
20.58
18.38
16.28
14.65
13.48
12.39
10.85
8.29
4.35
-1.15
-8.21
-16.62
-25.97
-35.70
-45.25
-54.30
-62.92
-71.61
-81.01
-91.51
-102.80
-113.62
-122.04
-126.00
-123.98
-115.60
-101.66
-83.89
-64.38
-45.01
-27.15
-11.58
1.40
11.84
20.05
26.56
32.01
37.04
42.17
47.57
53.02
57.97
61.66
63.34
62.48
58.95
53.13
45.96
38.66
32.46
28.17
25.89
25.03
24.54
23.32
20.69
16.47
10.93
4.58
-2.18
-9.18
-16.47
-24.23
-32.68
-41.98
-52.12
-62.85
-73.47
-82.73
-89.02
-90.64
-86.42
-76.18
-60.92
-42.61
-23.67
-6.25
8.25
19.33
27.24
32.65
36.30
38.73
40.27
41.12
41.41
41.29
40.93
40.42
39.74
38.78
37.35
35.31
32.65
29.58
26.40
23.40
20.70
18.17
15.57
12.71
9.67
6.72
4.19
2.13
0.33
-1.66
-4.21
-7.42
-11.21
-15.51
-20.43
-26.22
-32.91
-39.88
-45.80
-48.94
-47.89
-42.19
-32.50
-20.32
-7.35
5.07
16.19
25.77
33.78
40.22
45.03
48.22
49.96
50.62
50.71
50.71
51.04
51.84
53.01
54.24
55.11
55.26
54.52
52.94
50.76
48.16
45.24
41.87
37.85
33.00
27.30
20.94
14.26
7.65
1.41
-4.41
-10.00
-15.79
-22.32
-29.94
-38.64
-47.75
-56.05
-61.91
-63.84
-60.95
-53.20
-41.50
-27.37
-12.52
1.59
14.01
24.37
32.60
38.84
43.23
45.89
47.03
46.99
46.19
44.97
43.53
41.86
39.84
37.45
34.83
32.36
30.37
29.01
28.11
27.13
25.45
22.59
18.43
13.22
7.50
1.81
-3.53
-8.53
-13.54
-19.01
-25.33
-32.59
-40.50
-48.31
-54.93
-59.11
-59.73
-56.10
-48.18
-36.71
-23.04
-8.77
4.58
15.99
24.97
31.47
35.77
38.20
39.15
39.09
38.63
38.39
38.84
40.03
41.57
42.72
42.73
41.12
37.92
33.47
28.27
22.64
16.70
10.42
3.81
-2.94
-9.54
-15.75
-21.50
-27.03
-32.78
-39.26
-46.69
-54.85
-62.97
-69.76
-73.81
-74.01
-69.88
-61.81
-50.83
-38.29
-25.39
-13.03
-1.70
8.35
16.94
24.01
29.65
34.06
37.56
40.43
42.76
44.44
45.25
45.01
43.79
41.87
39.65
37.45
35.37
33.30
31.00
28.29
25.05
21.35
17.20
12.60
7.48
1.75
-4.67
-11.81
-19.64
-28.01
-36.55
-44.61
-51.22
-55.25
-55.72
-52.07
-44.41
-33.56
-20.85
-7.78
4.30
14.48
22.31
27.83
31.26
32.93
33.13
32.15
30.36
28.22
26.24
24.87
24.27
24.28
24.49
24.43
23.75
22.34
20.29
17.83
15.15
12.40
9.60
6.64
3.34
-0.53
-5.24
-11.00
-17.92
-25.95
-34.71
-43.49
-51.29
-57.00
-59.61
-58.47
-53.45
-44.96
-33.91
-21.52
-9.05
2.42
12.17
19.87
25.53
29.35
31.54
32.29
31.77
30.26
28.18
26.05
24.33
23.31
22.99
23.10
23.19
22.80
21.57
19.36
16.23
12.39
8.19
3.97
-0.01
-3.66
-7.08
-10.55
-14.47
-19.25
-25.16
-32.18
-39.90
-47.44
-53.63
-57.15
-57.00
-52.68
-44.48
-33.38
-20.79
-8.22
3.18
12.78
20.47
26.45
30.98
34.19
36.09
36.67
36.06
34.66
32.97
31.50
30.53
30.08
29.92
29.74
29.28
28.32
26.71
24.30
21.02
16.87
12.04
6.81
1.54
-3.50
-8.24
-12.80
-17.48
-22.64
-28.58
-35.41
-42.91
-50.41
-56.83
-60.92
-61.56
-58.17
-50.85
-40.42
-28.06
-15.01
-2.35
9.14
18.90
26.44
31.38
33.42
32.61
29.46
24.95
20.32
16.72
14.87
14.88
16.29
18.33
20.27
21.64
22.30
22.31
21.72
20.40
18.07
14.51
9.70
4.00
-1.89
-7.22
-11.45
-14.50
-16.85
-19.39
-23.03
-28.40
-35.54
-43.82
-52.15
-59.17
-63.63
-64.56
-61.50
-54.47
-44.09
-31.41
-17.78
-4.56
7.13
16.60
23.63
28.40
31.34
32.98
33.82
34.30
34.70
35.15
35.55
35.66
35.17
33.90
31.86
29.32
26.67
24.23
22.19
20.45
18.73
16.64
13.81
10.03
5.31
0.00
-5.38
-10.32
-14.60
-18.46
-22.54
-27.56
-33.94
-41.46
-49.20
-55.90
-60.34
-61.67
-59.60
-54.24
-46.00
-35.48
-23.49
-11.05
0.76
11.01
19.09
24.87
28.53
30.44
31.00
30.60
29.66
28.69
28.09
28.10
28.57
29.10
29.12
28.26
26.48
24.08
21.52
19.14
17.03
14.97
12.61
9.66
6.06
1.97
-2.29
-6.45
-10.49
-14.63
-19.25
-24.73
-31.31
-38.83
-46.74
-54.09
-59.67
-62.29
-61.13
-55.91
-47.09
-35.69
-23.04
-10.52
0.83
10.33
17.75
23.13
26.73
28.88
29.93
30.19
29.92
29.39
28.86
28.60
28.75
29.24
29.81
30.09
29.80
28.85
27.36
25.49
23.34
20.83
17.79
14.08
9.71
4.92
0.05
-4.53
-8.70
-12.60
-16.63
-21.41
-27.46
-34.97
-43.50
-51.98
-58.91
-62.82
-62.67
-58.24
-50.12
-39.43
-27.44
-15.30
-3.82
6.47
15.20
22.10
27.05
30.10
31.56
31.95
31.83
31.72
31.86
32.19
32.35
31.91
30.53
28.22
25.35
22.45
20.07
18.42
17.31
16.25
14.68
12.23
8.88
4.85
0.45
-4.05
-8.54
-13.03
-17.62
-22.48
-27.88
-34.14
-41.45
-49.70
-58.20
-65.75
-70.90
-72.33
-69.36
-62.09
-51.38
-38.50
-24.74
-11.22
1.24
12.09
20.93
27.56
31.93
34.27
35.02
34.78
34.10
33.37
32.72
32.07
31.18
29.82
27.91
25.62
23.28
21.30
19.95
19.27
18.94
18.45
17.16
14.65
10.83
5.99
0.74
-4.28
-8.64
-12.38
-16.01
-20.33
-26.00
-33.21
-41.48
-49.69
-56.47
-60.59
-61.28
-58.35
-52.11
-43.19
-32.38
-20.56
-8.61
2.67
12.64
20.89
27.16
31.40
33.74
34.47
34.05
33.14
32.39
32.32
33.23
35.11
37.67
40.27
42.12
42.33
40.23
35.64
29.06
21.50
14.13
7.82
2.82
-1.25
-5.05
-9.21
-14.09
-19.85
-26.40
-33.51
-40.62
-46.86
-51.05
-52.16
-49.57
-43.40
-34.47
-24.04
-13.43
-3.64
4.86
12.09
18.34
23.91
28.74
32.41
34.20
33.50
30.24
25.14
19.43
14.55
11.43
10.23
10.35
10.85
10.96
10.28
8.88
6.99
4.78
2.11
-1.34
-5.96
-11.94
-19.19
-27.39
-36.03
-44.56
-52.38
-58.75
-62.82
-63.73
-60.96
-54.57
-45.26
-34.26
-22.86
-12.12
-2.52
5.87
13.06
18.94
23.12
25.15
24.91
22.75
19.49
16.19
13.75
12.59
12.65
13.46
14.41
14.94
14.75
13.75
11.98
9.49
6.31
2.44
-2.05
-6.97
-12.10
-17.19
-22.12
-26.80
-31.06
-34.55
-36.62
-36.65
-34.22
-29.36
-22.64
-14.86
-6.84
0.84
7.85
14.12
19.67
24.64
29.24
33.64
37.81
41.47
44.07
45.08
44.24
41.87
38.67
35.42
32.52
29.80
26.64
22.41
16.93
10.68
4.49
-0.89
-5.24
-9.00
-13.01
-18.11
-24.62
-32.33
-40.47
-48.05
-54.12
-57.83
-58.59
-56.06
-50.28
-41.68
-31.14
-19.72
-8.44
1.95
11.02
18.65
24.86
29.83
33.78
36.95
39.57
41.81
43.76
45.47
46.99
48.34
49.53
50.39
50.60
49.74
47.48
43.66
38.41
31.97
24.58
16.37
7.35
-2.45
-12.87
-23.63
-34.38
-44.76
-54.36
-62.57
-68.59
-71.48
-70.44
-65.17
-56.04
-44.13
-30.88
-17.81
-6.09
3.63
11.25
16.94
21.03
23.70
25.01
24.99
23.73
21.53
18.82
16.07
13.58
11.41
9.51
7.79
6.35
5.39
5.05
5.15
5.17
4.36
2.09
-1.76
-6.77
-12.09
-16.97
-20.95
-24.18
-27.24
-30.79
-35.38
-41.17
-47.91
-55.00
-61.49
-66.18
-67.80
-65.31
-58.30
-47.12
-32.88
-17.18
-1.60
12.69
25.14
35.73
44.66
52.14
58.10
62.32
64.54
64.77
63.36
60.92
58.10
55.36
52.78
50.19
47.37
44.30
41.22
38.52
36.41
34.82
33.29
31.26
28.34
24.56
20.35
16.31
12.92
10.21
7.81
5.13
1.65
-2.80
-8.02
-13.57
-19.02
-24.10
-28.80
-33.31
-37.92
-42.97
-48.85
-55.89
-64.13
-73.03
-81.32
-87.20
-88.87
-85.12
-75.93
-62.48
-46.68
-30.56
-15.64
-2.59
8.63
18.37
27.01
34.62
41.02
45.94
49.23
50.93
51.32
50.80
49.81
48.72
47.80
47.22
47.08
47.30
47.61
47.63
46.94
45.29
42.68
39.29
35.40
31.17
26.67
21.90
16.98
12.15
7.71
3.86
0.48
-2.82
-6.60
-11.29
-16.98
-23.42
-30.04
-36.21
-41.55
-46.06
-50.14
-54.51
-59.90
-66.83
-75.26
-84.54
-93.38
-100.13
-103.19
-101.37
-94.26
-82.38
-66.98
-49.74
-32.34
-16.14
-1.97
9.81
19.25
26.65
32.46
37.14
41.07
44.46
47.31
49.44
50.70
51.06
50.70
49.95
49.12
48.39
47.79
47.23
46.57
45.71
44.50
42.72
40.10
36.45
31.77
26.37
20.75
15.38
10.52
6.12
1.85
-2.67
-7.70
-13.28
-19.20
-25.15
-30.81
-36.03
-40.89
-45.77
-51.13
-57.51
-65.19
-73.99
-83.21
-91.58
-97.57
-99.70
-96.98
-89.24
-77.18
-62.19
-45.88
-29.70
-14.53
-0.72
11.70
22.76
32.38
40.32
46.38
50.55
53.12
54.65
55.75
56.87
58.16
59.46
60.47
60.96
60.91
60.52
60.09
59.78
59.38
58.41
56.21
52.33
46.76
39.98
32.78
26.02
20.23
15.48
11.40
7.31
2.60
-3.04
-9.46
-16.09
-22.23
-27.35
-31.34
-34.59
-37.92
-42.31
-48.60
-57.20
-67.73
-78.98
-89.00
-95.55
-96.77
-91.78
-81.01
-66.04
-48.98
-31.86
-16.09
-2.38
9.09
18.41
25.66
31.08
34.98
37.82
40.08
42.07
43.86
45.31
46.22
46.48
46.18
45.56
44.96
44.62
44.70
45.07
45.33
44.91
43.20
39.94
35.24
29.67
23.98
18.76
14.25
10.32
6.60
2.67
-1.74
-6.73
-12.22
-18.11
-24.20
-30.28
-36.12
-41.61
-46.83
-52.16
-58.19
-65.43
-73.97
-83.15
-91.54
-97.29
-98.68
-94.76
-85.64
-72.44
-56.87
-40.61
-24.94
-10.55
2.33
13.66
23.53
31.95
38.97
44.66
49.12
52.45
54.75
56.10
56.62
56.47
55.89
55.19
54.65
54.39
54.39
54.42
54.06
52.88
50.62
47.21
42.89
38.01
32.99
28.13
23.53
19.12
14.63
9.81
4.48
-1.33
-7.37
-13.27
-18.68
-23.44
-27.71
-31.91
-36.65
-42.56
-50.02
-58.99
-68.76
-77.95
-84.72
-87.17
-84.01
-74.99
-61.07
-44.18
-26.62
-10.35
3.40
14.32
22.71
29.13
34.09
37.84
40.48
41.99
42.47
42.17
41.51
40.91
40.65
40.80
41.19
41.51
41.50
40.99
39.90
38.21
35.92
33.05
29.68
25.97
22.04
17.90
13.41
8.38
2.75
-3.36
-9.63
-15.70
-21.38
-26.72
-31.92
-37.21
-42.77
-48.78
-55.49
-63.12
-71.65
-80.43
-88.10
-92.69
-92.30
-85.85
-73.55
-56.93
-38.29
-19.96
-3.63
9.89
20.57
28.81
35.13
39.84
43.09
44.86
45.19
44.32
42.71
40.96
39.65
39.05
39.11
39.50
39.81
39.78
39.28
38.30
36.79
34.63
31.61
27.67
22.87
17.46
11.77
6.06
0.49
-4.83
-9.85
-14.52
-18.89
-23.07
-27.31
-31.86
-37.04
-43.13
-50.35
-58.67
-67.59
-76.03
-82.30
-84.61
-81.62
-72.97
-59.56
-43.22
-26.16
-10.22
3.53
14.84
23.97
31.30
37.02
41.13
43.55
44.37
43.93
42.79
41.56
40.73
40.52
40.89
41.63
42.45
43.10
43.36
43.04
42.00
40.10
37.29
33.67
29.43
24.71
19.64
14.24
8.46
2.36
-3.93
-10.16
-16.06
-21.41
-26.25
-30.78
-35.46
-40.89
-47.59
-55.74
-64.90
-73.90
-80.94
-84.15
-82.06
-74.20
-61.22
-44.74
-26.78
-9.21
6.64
20.11
30.99
39.32
45.20
48.70
49.99
49.46
47.76
45.65
43.84
42.73
42.27
42.05
41.52
40.31
38.31
35.82
33.24
30.86
28.70
26.40
23.42
19.30
13.95
7.71
1.16
-5.11
-10.80
-16.00
-21.10
-26.59
-32.84
-40.03
-48.07
-56.60
-64.87
-71.76
-75.88
-76.00
-71.41
-62.27
-49.60
-35.00
-20.10
-6.23
5.79
15.63
23.23
28.59
31.78
32.92
32.28
30.31
27.63
24.89
22.61
21.06
20.21
19.86
19.83
20.10
20.72
21.71
22.87
23.60
23.13
20.75
16.24
9.95
2.76
-4.25
-10.27
-14.98
-18.61
-21.86
-25.51
-30.24
-36.34
-43.60
-51.17
-57.75
-61.76
-61.77
-56.88
-47.06
-33.27
-17.15
-0.67
14.46
27.02
36.51
42.90
46.43
47.49
46.42
43.74
39.98
35.83
31.92
28.69
26.33
24.72
23.67
22.93
22.36
21.85
21.19
20.09
18.08
14.70
9.67
3.03
-4.88
-13.42
-22.00
-30.17
-37.86
-45.38
-53.27
-62.07
-71.91
-82.35
-92.24
-100.01
-104.10
-103.44
-97.68
-87.16
-72.89
-56.23
-38.87
-22.58
-9.00
0.73
6.36
8.59
8.84
8.70
9.32
11.08
13.67
16.51
19.24
21.88
24.75
28.11
31.78
35.02
36.75
35.90
31.82
24.51
14.74
3.85
-6.60
-15.14
-20.80
-23.39
-23.54
-22.58
-22.21
-23.98
-28.79
-36.59
-46.30
-56.09
-63.83
-67.61
-66.16
-59.10
-47.05
-31.47
-14.34
2.31
16.86
28.36
36.67
42.20
45.64
47.65
48.67
48.90
48.37
47.11
45.16
42.65
39.80
36.83
34.05
31.68
29.87
28.49
27.28
25.84
23.83
21.12
17.77
14.01
10.11
6.29
2.59
-1.18
-5.46
-10.79
-17.56
-25.70
-34.42
-42.25
-47.44
-48.47
-44.57
-35.96
-23.77
-9.55
5.10
19.00
31.43
42.02
50.57
56.90
60.88
62.48
62.03
60.08
57.43
54.82
52.74
51.30
50.31
49.55
48.87
48.32
47.95
47.72
47.35
46.42
44.56
41.63
37.87
33.77
29.83
26.27
22.84
18.89
13.56
6.19
-3.43
-14.80
-26.69
-37.45
-45.37
-49.09
-47.87
-41.79
-31.65
-18.77
-4.69
9.07
21.33
31.30
38.68
43.54
46.23
47.16
46.72
45.19
42.79
39.76
36.43
33.27
30.80
29.30
28.74
28.64
28.26
26.88
24.15
20.12
15.25
10.07
4.94
0.01
-4.79
-9.58
-14.45
-19.47
-24.79
-30.52
-36.63
-42.70
-47.87
-50.97
-50.84
-46.80
-38.86
-27.79
-14.96
-1.90
10.06
20.09
27.91
33.68
37.64
39.97
40.67
39.72
37.27
33.73
29.75
26.02
23.02
20.93
19.61
18.69
17.81
16.62
14.88
12.51
9.57
6.26
2.91
-0.16
-2.77
-5.00
-7.20
-9.99
-14.04
-19.81
-27.34
-36.04
-44.74
-51.92
-56.14
-56.34
-52.16
-43.96
-32.66
-19.58
-6.08
6.58
17.46
26.00
32.09
35.93
37.99
38.78
38.71
38.05
36.98
35.70
34.48
33.53
32.96
32.63
32.21
31.29
29.65
27.43
24.96
22.56
20.14
17.23
13.08
7.18
-0.50
-9.41
-18.72
-27.79
-36.42
-44.84
-53.24
-61.44
-68.56
-73.29
-74.30
-70.82
-62.99
-51.73
-38.54
-24.97
-12.35
-1.53
7.12
13.64
18.31
21.48
23.44
24.38
24.41
23.68
22.47
21.22
20.31
19.94
20.01
20.16
19.93
19.01
17.29
14.97
12.34
9.61
6.80
3.74
0.18
-4.01
-8.78
-13.88
-19.06
-24.22
-29.55
-35.22
-41.13
-46.67
-50.64
-51.69
-48.83
-41.90
-31.69
-19.65
-7.36
3.89
13.35
20.74
26.06
29.36
30.73
30.34
28.57
26.04
23.54
21.76
21.11
21.52
22.44
23.10
22.76
21.11
18.23
14.55
10.55
6.53
2.56
-1.42
-5.43
-9.41
-13.22
-16.82
-20.42
-24.44
-29.38
-35.62
-43.07
-51.06
-58.37
-63.47
-65.01
-62.26
-55.37
-45.30
-33.53
-21.57
-10.58
-1.23
6.26
11.98
16.15
19.05
20.89
21.81
21.84
20.99
19.31
17.05
14.66
12.65
11.45
11.10
11.33
11.63
11.51
10.64
8.99
6.64
3.75
0.47
-3.03
-6.58
-10.00
-13.23
-16.37
-19.74
-23.76
-28.68
-34.31
-39.92
-44.32
-46.15
-44.33
-38.50
-29.15
-17.57
-5.38
5.86
15.11
21.98
26.62
29.42
30.73
30.77
29.65
27.58
25.00
22.47
20.50
19.33
18.87
18.79
18.81
18.81
18.84
19.00
19.21
19.19
18.52
16.84
14.08
10.40
6.09
1.40
-3.65
-9.22
-15.45
-22.30
-29.28
-35.49
-39.79
-41.11
-38.93
-33.43
-25.53
-16.51
-7.68
0.01
6.09
10.56
13.60
15.39
15.99
15.43
13.80
11.39
8.67
6.21
4.54
3.95
4.50
5.95
7.76
9.26
9.71
8.53
5.51
0.94
-4.44
-9.70
-14.05
-17.14
-19.18
-20.80
-22.67
-25.34
-28.90
-33.02
-36.90
-39.53
-39.87
-37.21
-31.42
-23.04
-13.16
-3.10
5.96
13.21
18.36
21.36
22.34
21.48
19.03
15.48
11.56
8.11
5.84
5.09
5.66
6.90
7.95
8.09
6.94
4.59
1.44
-1.99
-5.27
-8.23
-10.95
-13.72
-16.90
-20.85
-25.83
-31.84
-38.58
-45.34
-51.10
-54.67
-54.93
-51.28
-43.75
-33.12
-20.66
-7.75
4.44
15.16
24.07
30.98
35.70
38.03
37.94
35.70
32.00
27.76
23.86
20.82
18.67
17.00
15.26
13.06
10.36
7.36
4.40
1.65
-1.00
-3.88
-7.42
-11.93
-17.52
-24.21
-31.85
-40.25
-48.93
-56.97
-63.02
-65.55
-63.42
-56.36
-45.25
-31.81
-18.04
-5.56
4.86
13.27
20.13
25.90
30.77
34.53
36.92
37.72
37.01
35.17
32.74
30.27
28.11
26.33
24.69
22.84
20.47
17.48
14.04
10.39
6.76
3.16
-0.54
-4.54
-9.08
-14.31
-20.39
-27.34
-34.98
-42.79
-49.82
-54.86
-56.76
-54.82
-49.00
-39.97
-28.86
-17.00
-5.56
4.64
13.18
20.06
25.51
29.85
33.32
36.03
37.94
38.97
39.09
38.28
36.63
34.35
31.74
29.16
26.90
25.12
23.68
22.34
20.82
18.97
16.81
14.42
11.79
8.75
5.06
0.49
-4.98
-11.32
-18.45
-26.35
-34.92
-43.72
-51.76
-57.61
-59.79
-57.30
-50.10
-39.17
-26.14
-12.69
-0.05
11.19
20.91
29.20
36.08
41.48
45.34
47.78
49.00
49.19
48.46
46.81
44.37
41.49
38.71
36.58
35.34
34.71
34.09
32.79
30.41
26.95
22.72
18.07
13.16
7.92
2.20
-4.04
-10.61
-17.32
-24.06
-30.98
-38.32
-46.14
-53.97
-60.76
-65.21
-66.24
-63.44
-57.26
-48.73
-38.96
-28.68
-18.09
-7.01
4.75
17.02
29.09
39.90
48.36
53.72
55.85
55.25
52.90
49.84
46.93
44.58
42.82
41.44
40.30
39.42
38.99
39.23
40.11
41.32
42.11
41.53
38.67
32.89
23.96
12.07
-2.27
-18.31
-34.96
-50.80
-64.05
-72.89
-75.91
-72.62
-63.66
-50.59
-35.49
-20.18
-5.93
6.65
17.35
25.97
32.12
35.34
35.37
32.34
27.00
20.44
13.84
8.18
4.07
1.67
0.80
0.96
1.45
1.51
0.48
-1.92
-5.55
-9.88
-14.23
-18.11
-21.33
-24.11
-26.83
-29.84
-33.35
-37.31
-41.50
-45.44
-48.40
-49.44
-47.67
-42.49
-33.89
-22.58
-9.75
3.20
15.07
25.09
32.99
38.86
42.96
45.62
47.00
47.21
46.22
44.02
40.77
36.84
32.85
29.47
27.20
26.13
25.90
25.91
25.59
24.59
22.84
20.42
17.42
13.88
9.87
5.60
1.43
-2.25
-5.20
-7.53
-9.71
-12.40
-16.30
-21.83
-28.96
-37.17
-45.45
-52.52
-57.06
-58.02
-54.86
-47.75
-37.50
-25.46
-13.13
-1.79
7.84
15.63
22.02
27.51
32.40
36.59
39.75
41.49
41.77
40.91
39.50
38.09
36.97
36.17
35.56
35.05
34.56
34.00
33.14
31.69
29.39
26.26
22.56
18.69
15.01
11.54
8.03
4.12
-0.46
-5.62
-11.02
-16.25
-21.06
-25.52
-29.98
-34.86
-40.52
-47.13
-54.57
-62.37
-69.73
-75.55
-78.53
-77.58
-72.18
-62.65
-50.17
-36.46
-23.16
-11.38
-1.45
6.91
14.11
20.43
25.80
30.03
32.99
34.86
35.99
36.74
37.28
37.58
37.48
36.92
36.00
34.97
34.11
33.60
33.36
33.14
32.46
30.87
27.99
23.79
18.63
13.14
8.02
3.70
0.16
-3.07
-6.68
-11.13
-16.50
-22.42
-28.29
-33.58
-38.02
-41.64
-44.77
-47.89
-51.54
-56.22
-62.16
-69.07
-75.89
-80.97
-82.41
-78.75
-69.63
-55.93
-39.58
-22.89
-7.76
4.85
14.92
23.04
29.84
35.58
40.07
42.88
43.69
42.55
39.98
36.74
33.60
31.12
29.51
28.74
28.59
28.84
29.27
29.77
30.15
30.15
29.37
27.33
23.67
18.39
11.95
5.17
-1.01
-5.93
-9.44
-11.88
-13.95
-16.33
-19.49
-23.50
-28.15
-32.96
-37.46
-41.35
-44.64
-47.80
-51.52
-56.53
-63.16
-71.00
-78.85
-84.94
-87.36
-84.68
-76.50
-63.52
-47.45
-30.42
-14.40
-0.71
10.17
18.47
24.73
29.48
33.05
35.52
36.90
37.28
36.87
35.99
34.98
34.11
33.53
33.25
33.07
32.68
31.76
30.05
27.53
24.38
20.87
17.29
13.74
10.16
6.33
2.10
-2.57
-7.55
-12.56
-17.38
-21.88
-26.12
-30.33
-34.80
-39.92
-46.07
-53.45
-61.91
-70.75
-78.69
-84.02
-85.15
-81.11
-71.97
-58.87
-43.66
-28.29
-14.24
-2.24
7.68
15.87
22.69
28.30
32.63
35.56
37.05
37.30
36.71
35.76
34.85
34.16
33.60
33.03
32.32
31.50
30.74
30.13
29.57
28.66
26.88
23.76
19.11
13.11
6.24
-0.89
-7.68
-13.61
-18.41
-22.02
-24.75
-27.23
-30.33
-34.88
-41.40
-49.87
-59.52
-69.04
-76.78
-81.08
-80.73
-75.23
-64.97
-51.13
-35.41
-19.57
-4.99
7.54
17.80
25.98
32.39
37.33
40.99
43.50
45.03
45.80
46.08
46.16
46.30
46.61
47.04
47.39
47.36
46.71
45.37
43.48
41.28
39.02
36.75
34.23
31.06
26.87
21.47
15.01
7.86
0.46
-6.80
-13.70
-20.22
-26.38
-32.31
-38.27
-44.72
-52.21
-61.07
-71.00
-80.78
-88.37
-91.55
-88.75
-79.67
-65.47
-48.24
-30.26
-13.25
1.90
14.96
26.03
35.15
42.22
47.18
50.17
51.57
51.92
51.68
51.13
50.37
49.32
47.91
46.15
44.11
41.94
39.81
37.88
36.19
34.63
32.90
30.51
26.94
21.84
15.16
7.33
-0.94
-8.85
-15.82
-21.68
-26.78
-31.90
-38.01
-45.97
-56.13
-68.02
-80.24
-90.71
-97.19
-98.02
-92.65
-81.76
-67.03
-50.45
-33.84
-18.43
-4.87
6.58
15.89
23.15
28.53
32.36
35.10
37.19
39.02
40.82
42.62
44.34
45.81
46.93
47.65
48.05
48.21
48.24
48.02
47.30
45.66
42.68
38.17
32.26
25.43
18.38
11.72
5.80
0.54
-4.44
-9.79
-16.17
-24.09
-33.69
-44.55
-55.56
-65.03
-71.00
-71.80
-66.64
-55.91
-41.02
-24.00
-6.90
8.78
22.18
32.97
41.22
47.09
50.87
52.84
53.34
52.80
51.58
50.06
48.54
47.20
46.08
45.01
43.73
41.98
39.70
37.01
34.15
31.39
28.69
25.77
22.14
17.43
11.61
5.02
-1.70
-7.96
-13.49
-18.47
-23.47
-29.24
-36.47
-45.45
-55.86
-66.65
-76.11
-82.23
-83.23
-78.13
-67.15
-51.68
-33.84
-15.89
0.42
14.10
24.95
33.22
39.39
43.89
47.04
49.13
50.44
51.24
51.73
51.92
51.63
50.57
48.54
45.52
41.77
37.72
33.73
30.00
26.39
22.56
18.12
12.80
6.65
-0.04
-6.78
-13.18
-19.02
-24.48
-30.04
-36.38
-44.09
-53.41
-63.85
-74.16
-82.48
-86.83
-85.75
-78.75
-66.53
-50.79
-33.65
-17.13
-2.62
9.20
18.33
25.07
29.83
33.04
35.02
36.15
36.74
37.08
37.35
37.52
37.49
37.13
36.47
35.65
34.94
34.51
34.35
34.17
33.46
31.69
28.46
23.73
17.72
10.96
4.04
-2.45
-8.15
-13.05
-17.62
-22.70
-29.26
-37.96
-48.77
-60.67
-71.77
-79.74
-82.49
-78.89
-69.11
-54.51
-37.17
-19.26
-2.47
12.22
24.48
34.39
42.15
47.92
51.80
53.93
54.59
54.25
53.44
52.64
52.09
51.79
51.51
51.01
50.15
48.95
47.57
46.21
44.92
43.55
41.73
38.97
34.91
29.46
22.98
16.09
9.53
3.77
-1.08
-5.33
-9.53
-14.27
-20.07
-27.32
-36.19
-46.50
-57.45
-67.53
-74.68
-76.83
-72.70
-62.29
-47.01
-29.21
-11.42
4.43
17.36
27.28
34.59
39.84
43.35
45.35
46.03
45.75
45.04
44.46
44.43
44.99
45.79
46.20
45.53
43.38
39.75
35.08
30.00
25.03
20.38
15.86
11.00
5.30
-1.54
-9.49
-18.23
-27.31
-36.26
-44.83
-52.99
-60.99
-69.18
-77.95
-87.53
-97.82
-108.40
-118.35
-126.31
-130.60
-129.62
-122.38
-109.05
-91.11
-70.95
-51.15
-33.70
-19.43
-8.15
0.91
8.45
14.81
19.95
23.77
26.35
27.99
29.07
29.85
30.36
30.40
29.79
28.49
26.59
24.34
21.96
19.55
16.95
13.87
9.99
5.10
-0.85
-7.75
-15.37
-23.45
-31.68
-39.74
-47.30
-54.07
-59.95
-65.14
-70.11
-75.45
-81.72
-89.21
-97.69
-106.38
-113.97
-118.92
-119.83
-115.77
-106.48
-92.27
-73.94
-52.63
-29.82
-7.24
13.33
30.39
43.14
51.72
57.12
60.69
63.67
66.68
69.73
72.42
74.29
75.10
74.93
74.07
72.96
71.95
71.30
70.94
70.52
69.33
66.64
61.93
55.09
46.67
37.57
28.80
21.14
14.83
9.70
5.23
0.86
-3.99
-9.75
-16.72
-24.84
-33.53
-41.57
-47.36
-49.33
-46.59
-39.28
-28.55
-16.12
-3.60
8.00
18.41
27.79
36.35
44.00
50.38
55.07
57.86
58.94
58.82
58.08
57.14
56.09
54.84
53.27
51.44
49.57
47.86
46.33
44.71
42.57
39.54
35.55
30.93
26.24
21.95
18.24
14.86
11.16
6.34
-0.36
-9.36
-20.56
-33.10
-45.36
-55.26
-60.75
-60.46
-54.14
-42.80
-28.36
-13.03
1.33
13.62
23.60
31.53
37.78
42.51
45.58
46.68
45.76
43.17
39.67
36.20
33.49
31.78
30.85
30.25
29.60
28.75
27.72
26.56
25.16
23.33
20.91
17.87
14.30
10.30
5.77
0.38
-6.31
-14.58
-24.26
-34.63
-44.48
-52.30
-56.75
-56.91
-52.59
-44.38
-33.44
-21.18
-8.87
2.58
12.76
21.53
28.84
34.53
38.32
39.92
39.26
36.60
32.56
27.96
23.64
20.21
17.95
16.76
16.27
15.97
15.39
14.25
12.50
10.29
7.82
5.20
2.37
-0.90
-4.91
-9.99
-16.34
-23.97
-32.54
-41.28
-48.96
-54.18
-55.71
-52.88
-45.81
-35.38
-22.95
-9.90
2.59
13.73
23.06
30.33
35.46
38.50
39.63
39.22
37.72
35.58
33.24
30.96
28.83
26.81
24.83
22.82
20.78
18.79
16.93
15.28
13.75
12.10
9.84
6.38
1.18
-6.04
-15.11
-25.39
-35.81
-45.09
-52.00
-55.53
-55.00
-50.29
-41.83
-30.60
-17.99
-5.45
5.89
15.33
22.65
27.86
30.96
31.87
30.59
27.47
23.26
19.06
15.91
14.42
14.54
15.62
16.73
17.09
16.25
14.25
11.40
8.08
4.58
0.95
-2.92
-7.29
-12.45
-18.65
-25.91
-33.95
-42.11
-49.33
-54.37
-56.06
-53.65
-47.06
-36.90
-24.39
-10.99
1.80
12.87
21.52
27.55
31.13
32.67
32.57
31.18
28.77
25.65
22.25
19.09
16.55
14.75
13.41
12.03
10.15
7.68
4.96
2.56
0.96
0.20
-0.13
-0.84
-2.79
-6.71
-12.91
-21.23
-30.94
-40.77
-49.22
-54.79
-56.45
-53.81
-47.26
-37.75
-26.50
-14.75
-3.46
6.72
15.37
22.28
27.29
30.38
31.58
31.14
29.44
27.00
24.38
21.96
19.93
18.18
16.45
14.43
11.97
9.13
6.23
3.64
1.66
0.35
-0.62
-1.85
-4.04
-7.74
-13.14
-19.94
-27.42
-34.43
-39.66
-41.94
-40.51
-35.34
-27.17
-17.26
-7.00
2.52
10.77
17.73
23.62
28.57
32.53
35.26
36.62
36.63
35.54
33.72
31.44
28.82
25.75
22.10
17.79
13.02
8.19
3.81
0.33
-2.14
-3.80
-5.11
-6.67
-9.06
-12.73
-17.97
-24.85
-33.07
-41.90
-50.13
-56.22
-58.75
-56.91
-50.79
-41.37
-30.14
-18.66
-8.05
1.12
8.69
14.64
18.89
21.27
21.69
20.33
17.79
14.98
12.81
11.94
12.44
13.83
15.21
15.74
14.92
12.82
10.02
7.21
4.88
3.01
1.16
-1.30
-4.87
-9.68
-15.53
-22.03
-28.75
-35.15
-40.57
-44.10
-44.79
-42.00
-35.74
-26.86
-16.88
-7.49
0.08
5.31
8.42
10.00
10.61
10.53
9.78
8.34
6.42
4.50
3.25
3.15
4.28
6.24
8.33
9.89
10.60
10.55
10.01
9.26
8.31
7.00
5.06
2.40
-0.87
-4.61
-8.76
-13.51
-19.17
-25.88
-33.30
-40.53
-46.24
-49.12
-48.21
-43.24
-34.63
-23.32
-10.51
2.60
15.01
25.90
34.64
40.75
43.93
44.11
41.61
37.00
31.18
25.12
19.68
15.43
12.57
10.97
10.30
10.21
10.37
10.53
10.45
9.92
8.78
6.96
4.45
1.29
-2.56
-7.25
-13.00
-19.78
-27.21
-34.42
-40.21
-43.44
-43.36
-39.84
-33.29
-24.49
-14.35
-3.83
6.18
14.86
21.50
25.72
27.50
27.23
25.62
23.41
21.26
19.63
18.67
18.33
18.23
17.83
16.51
13.91
10.03
5.40
0.89
-2.67
-4.78
-5.58
-5.76
-6.36
-8.38
-12.41
-18.37
-25.55
-32.73
-38.58
-41.98
-42.27
-39.43
-33.95
-26.67
-18.51
-10.29
-2.55
4.36
10.32
15.29
19.26
22.19
24.09
25.03
25.18
24.84
24.25
23.55
22.56
20.99
18.48
14.91
10.50
5.72
1.12
-2.97
-6.54
-9.91
-13.58
-18.01
-23.47
-29.90
-36.87
-43.57
-49.01
-52.13
-52.13
-48.60
-41.70
-32.08
-20.72
-8.75
2.86
13.38
22.37
29.61
35.04
38.68
40.65
41.21
40.73
39.67
38.42
37.20
35.98
34.52
32.53
29.86
26.52
22.76
18.88
15.16
11.73
8.51
5.17
1.23
-3.83
-10.38
-18.48
-27.79
-37.57
-46.79
-54.27
-58.85
-59.69
-56.38
-49.14
-38.76
-26.45
-13.59
-1.36
9.39
18.25
25.17
30.32
33.97
36.38
37.80
38.39
38.24
37.36
35.81
33.69
31.20
28.60
26.13
24.00
22.27
20.86
19.54
17.95
15.62
12.21
7.53
1.70
-4.87
-11.59
-17.93
-23.66
-29.02
-34.63
-41.25
-49.35
-58.79
-68.65
-77.40
-83.41
-85.38
-82.76
-75.85
-65.56
-53.11
-39.70
-26.37
-13.89
-2.81
6.54
14.07
19.88
24.24
27.49
29.89
31.63
32.72
33.17
33.00
32.29
31.23
30.05
28.90
27.93
27.10
26.30
25.31
23.86
21.68
18.61
14.61
9.88
4.82
-0.09
-4.38
-7.70
-9.94
-11.21
-11.82
-12.28
-13.23
-15.36
-19.21
-24.98
-32.39
-40.58
-48.29
-54.10
-56.83
-55.82
-51.05
-43.10
-32.90
-21.49
-9.82
1.45
11.89
21.30
29.63
36.86
42.96
47.86
51.53
54.04
55.62
56.50
56.89
56.74
55.84
53.85
50.57
46.07
40.69
34.91
29.13
23.55
18.20
13.05
8.16
3.73
-0.01
-2.99
-5.30
-7.32
-9.54
-12.48
-16.48
-21.69
-27.92
-34.66
-41.03
-45.89
-48.11
-46.96
-42.37
-35.09
-26.43
-17.77
-10.09
-3.70
1.75
6.85
11.98
17.13
21.87
25.68
28.19
29.37
29.54
29.24
29.03
29.27
30.01
30.91
31.39
30.87
29.08
26.18
22.71
19.34
16.50
14.31
12.54
10.82
8.85
6.43
3.47
-0.18
-4.66
-9.97
-15.70
-21.12
-25.35
-27.79
-28.49
-28.06
-27.39
-27.10
-27.18
-27.08
-26.05
-23.66
-20.06
-15.88
-11.85
-8.40
-5.51
-2.82
-0.01
3.01
6.01
8.72
10.84
12.30
13.06
13.11
12.40
10.92
8.76
6.15
3.42
0.76
-1.84
-4.75
-8.48
-13.57
-20.23
-28.26
-36.88
-44.86
-50.80
-53.44
-51.99
-46.39
-37.29
-25.84
-13.41
-1.17
10.03
19.73
27.72
34.05
38.81
42.10
43.99
44.46
43.48
41.07
37.41
32.85
27.93
23.10
18.72
14.87
11.51
8.57
6.11
4.25
3.05
2.23
1.16
-1.08
-5.36
-12.14
-21.27
-31.89
-42.67
-52.01
-58.46
-61.06
-59.47
-53.99
-45.45
-34.97
-23.63
-12.38
-1.80
7.71
15.88
22.52
27.37
30.25
31.12
30.13
27.73
24.55
21.34
18.75
17.12
16.40
16.17
15.91
15.20
13.91
12.17
10.21
8.15
5.96
3.49
0.67
-2.48
-5.89
-9.64
-14.03
-19.38
-25.78
-32.68
-38.89
-42.82
-43.12
-39.16
-31.22
-20.26
-7.57
5.64
18.34
29.57
38.31
43.60
44.87
42.26
36.75
29.82
23.01
17.40
13.32
10.51
8.44
6.64
4.96
3.50
2.46
1.94
1.76
1.56
0.87
-0.66
-3.11
-6.28
-9.78
-13.14
-16.02
-18.31
-20.17
-21.98
-24.30
-27.71
-32.57
-38.88
-46.11
-53.20
-58.75
-61.36
-60.00
-54.30
-44.61
-32.01
-17.98
-4.00
8.79
19.84
29.14
36.99
43.62
49.02
52.84
54.68
54.35
52.18
48.90
45.40
42.36
40.04
38.33
36.95
35.69
34.51
33.44
32.45
31.29
29.58
27.04
23.59
19.49
15.04
10.45
5.63
0.29
-5.86
-12.93
-20.72
-28.77
-36.58
-43.83
-50.51
-56.92
-63.53
-70.66
-78.21
-85.45
-91.17
-94.01
-92.99
-87.79
-78.86
-67.18
-53.88
-39.97
-26.15
-13.02
-1.05
9.33
17.78
24.24
28.89
32.14
34.43
36.23
37.85
39.52
41.39
43.39
45.37
47.07
48.30
48.98
49.13
48.78
47.90
46.36
44.05
41.04
37.55
33.88
30.16
26.26
21.86
16.67
10.69
4.34
-1.74
-7.03
-11.44
-15.28
-19.20
-23.77
-29.32
-35.89
-43.17
-50.60
-57.33
-62.25
-64.13
-62.05
-55.71
-45.68
-33.35
-20.51
-8.70
1.15
8.95
15.18
20.47
25.20
29.41
32.84
35.22
36.50
36.91
36.85
36.64
36.44
36.12
35.45
34.18
32.20
29.57
26.50
23.26
20.06
17.00
14.02
10.94
7.65
4.15
0.61
-2.79
-5.95
-8.96
-12.07
-15.53
-19.46
-23.78
-28.32
-33.00
-37.88
-43.09
-48.52
-53.61
-57.33
-58.47
-56.11
-50.09
-41.03
-30.15
-18.74
-7.81
2.13
10.84
18.16
23.85
27.71
29.80
30.52
30.55
30.54
30.76
31.10
31.18
30.61
29.22
27.11
24.48
21.60
18.72
16.04
13.77
12.00
10.65
9.54
8.27
6.45
3.78
0.04
-4.82
-10.73
-17.52
-24.92
-32.71
-40.70
-48.65
-56.15
-62.43
-66.40
-66.99
-63.56
-56.27
-46.12
-34.59
-23.07
-12.50
-3.23
4.71
11.37
16.61
20.19
21.90
21.74
20.05
17.41
14.55
12.22
10.95
11.00
12.20
14.11
16.06
17.52
18.25
18.37
18.24
18.16
18.12
17.72
16.21
12.83
7.11
-0.85
-10.33
-20.13
-28.85
-35.17
-38.28
-37.98
-34.84
-29.97
-24.75
-20.23
-16.87
-14.34
-11.70
-7.92
-2.33
4.99
13.21
20.99
26.92
29.98
29.79
26.75
21.89
16.50
11.72
8.21
6.00
4.60
3.45
2.16
0.71
-0.70
-1.98
-3.31
-5.19
-8.17
-12.70
-18.84
-26.31
-34.54
-42.78
-50.12
-55.59
-58.21
-57.19
-52.20
-43.40
-31.57
-17.91
-3.82
9.41
20.74
29.53
35.59
39.00
40.08
39.30
37.28
34.76
32.52
31.20
31.03
31.68
32.32
32.00
30.12
26.73
22.39
17.77
13.07
7.88
1.42
-6.83
-16.72
-27.34
-37.51
-46.36
-53.59
-59.28
-63.42
-65.54
-64.79
-60.40
-52.30
-41.37
-29.09
-16.99
-6.02
3.58
12.00
19.34
25.30
29.24
30.55
29.17
25.70
21.37
17.54
15.27
14.91
16.04
17.73
18.92
18.79
17.01
13.82
9.74
5.31
0.88
-3.51
-8.07
-13.09
-18.80
-25.35
-32.73
-40.75
-48.85
-56.09
-61.20
-62.95
-60.59
-54.13
-44.41
-32.71
-20.27
-7.93
3.96
15.31
25.96
35.54
43.43
49.09
52.26
53.09
52.07
49.83
47.00
44.09
41.49
39.47
38.10
37.19
36.34
35.02
32.77
29.39
25.01
20.00
14.73
9.46
4.24
-1.04
-6.56
-12.57
-19.33
-27.04
-35.66
-44.72
-53.21
-59.75
-62.97
-61.93
-56.50
-47.29
-35.46
-22.29
-8.92
3.84
15.57
26.05
35.22
43.05
49.47
54.39
57.79
59.76
60.57
60.60
60.18
59.45
58.33
56.55
53.91
50.46
46.54
42.68
39.30
36.50
33.93
31.02
27.16
22.10
15.97
9.27
2.61
-3.54
-9.00
-13.90
-18.53
-23.28
-28.54
-34.69
-42.01
-50.44
-59.36
-67.57
-73.45
-75.46
-72.64
-64.98
-53.36
-39.27
-24.29
-9.74
3.53
15.10
24.89
32.98
39.47
44.43
47.89
49.89
50.63
50.47
49.91
49.40
49.18
49.14
48.93
48.10
46.40
43.85
40.71
37.36
34.07
30.98
28.04
25.07
21.86
18.23
14.07
9.36
4.19
-1.29
-6.89
-12.46
-17.94
-23.32
-28.69
-34.22
-40.15
-46.75
-54.08
-61.81
-69.13
-74.79
-77.45
-76.12
-70.53
-61.21
-49.39
-36.56
-24.07
-12.86
-3.35
4.45
10.77
15.84
19.86
22.87
24.96
26.21
26.76
26.82
26.54
25.96
25.07
23.78
22.06
19.90
17.31
14.30
10.82
6.87
2.47
-2.22
-7.05
-11.85
-16.58
-21.25
-25.85
-30.29
-34.32
-37.62
-39.96
-41.35
-42.03
-42.47
-43.17
-44.58
-46.92
-50.09
-53.58
-56.47
-57.61
-55.83
-50.36
-41.11
-28.67
-14.14
1.32
16.83
31.90
46.25
59.58
71.31
80.64
86.82
89.44
88.68
85.23
80.06
74.16
68.27
62.86
58.02
53.82
50.20
47.17
44.69
42.67
40.85
38.85
36.27
32.81
28.49
23.61
18.68
14.20
10.44
7.41
4.88
2.48
-0.15
-3.31
-7.26
-12.20
-18.13
-24.73
-31.17
-36.21
-38.48
-36.98
-31.50
-22.76
-12.15
-1.21
8.85
17.57
25.04
31.68
37.71
42.96
46.91
49.01
49.00
47.11
43.93
40.21
36.54
33.26
30.45
28.08
26.12
24.56
23.29
22.12
20.73
18.76
15.99
12.32
7.85
2.78
-2.67
-8.24
-13.65
-18.66
-23.06
-26.84
-30.19
-33.50
-37.21
-41.73
-47.25
-53.74
-60.81
-67.76
-73.60
-77.15
-77.41
-73.74
-66.21
-55.57
-43.08
-30.17
-17.97
-7.10
2.31
10.44
17.50
23.52
28.34
31.77
33.75
34.46
34.22
33.48
32.60
31.89
31.59
31.84
32.74
34.16
35.72
36.82
36.80
35.22
32.01
27.56
22.49
17.44
12.78
8.56
4.58
0.54
-3.76
-8.35
-13.09
-17.79
-22.30
-26.61
-30.87
-35.24
-39.90
-45.05
-50.95
-57.96
-66.35
-75.99
-86.09
-95.21
-101.57
-103.58
-100.51
-92.61
-81.11
-67.59
-53.60
-40.21
-28.08
-17.47
-8.51
-1.19
4.65
9.31
13.19
16.58
19.62
22.32
24.59
26.39
27.67
28.45
28.83
28.99
29.26
30.01
31.55
33.87
36.54
38.75
39.60
38.48
35.27
30.50
25.03
19.82
15.43
12.00
9.17
6.38
3.03
-1.24
-6.46
-12.36
-18.51
-24.48
-29.93
-34.74
-39.07
-43.27
-47.90
-53.55
-60.58
-68.83
-77.45
-85.00
-89.82
-90.53
-86.47
-77.88
-65.76
-51.46
-36.35
-21.57
-7.89
4.23
14.58
23.19
30.23
35.97
40.68
44.50
47.51
49.72
51.20
52.09
52.55
52.68
52.45
51.81
50.71
49.24
47.60
46.02
44.50
42.81
40.50
37.11
32.46
26.75
20.57
14.57
9.14
4.27
-0.39
-5.33
-10.88
-17.02
-23.47
-29.82
-35.68
-40.91
-45.60
-50.11
-55.01
-60.88
-68.01
-76.14
-84.23
-90.63
-93.61
-91.96
-85.48
-75.08
-62.29
-48.64
-35.22
-22.47
-10.42
0.91
11.31
20.39
27.69
32.95
36.23
37.88
38.49
38.68
38.99
39.73
40.86
42.03
42.70
42.45
41.06
38.70
35.69
32.39
29.04
25.80
22.77
20.03
17.56
15.14
12.38
8.81
4.17
-1.44
-7.61
-13.81
-19.60
-24.86
-29.76
-34.61
-39.65
-44.93
-50.14
-54.64
-57.47
-57.54
-53.93
-46.24
-34.77
-20.57
-5.20
9.76
23.06
33.97
42.25
47.94
51.27
52.47
51.89
49.93
47.13
44.03
41.13
38.78
37.12
36.11
35.52
35.05
34.32
33.01
30.86
27.72
23.62
18.78
13.52
8.24
3.22
-1.37
-5.55
-9.48
-13.47
-17.89
-23.15
-29.45
-36.60
-43.88
-49.96
-53.33
-52.76
-47.74
-38.68
-26.83
-13.85
-1.29
9.69
18.48
24.90
29.04
31.04
31.06
29.33
26.15
22.03
17.61
13.61
10.61
8.88
8.27
8.27
8.23
7.56
5.93
3.28
-0.17
-4.00
-7.72
-10.92
-13.42
-15.41
-17.43
-20.28
-24.67
-30.99
-39.03
-47.92
-56.25
-62.42
-64.90
-62.69
-55.59
-44.28
-30.18
-15.12
-0.81
11.51
21.34
28.80
34.32
38.30
40.91
42.07
41.70
39.93
37.25
34.38
32.02
30.59
30.00
29.81
29.33
28.08
25.83
22.70
19.03
15.09
10.97
6.56
1.60
-4.15
-10.79
-18.28
-26.43
-34.93
-43.19
-50.32
-55.13
-56.39
-53.29
-45.82
-34.90
-22.11
-9.22
2.40
12.09
19.95
26.46
32.11
37.05
41.08
43.83
44.98
44.46
42.63
40.09
37.52
35.41
33.86
32.60
31.20
29.28
26.75
23.71
20.37
16.78
12.85
8.35
3.10
-2.92
-9.61
-16.89
-24.82
-33.32
-42.02
-49.91
-55.38
-56.79
-53.12
-44.55
-32.47
-18.95
-5.92
5.55
15.34
23.90
31.64
38.51
43.94
47.30
48.27
47.09
44.51
41.38
38.39
35.81
33.60
31.48
29.06
26.09
22.40
18.07
13.35
8.59
4.12
0.06
-3.67
-7.47
-11.75
-16.96
-23.37
-31.11
-40.09
-49.94
-59.90
-68.77
-75.17
-77.72
-75.57
-68.55
-57.30
-43.00
-27.12
-11.10
3.89
17.02
27.85
36.20
42.12
45.77
47.41
47.44
46.32
44.61
42.80
41.23
39.94
38.70
37.15
35.09
32.52
29.66
26.80
24.03
21.14
17.64
13.02
6.93
-0.58
-9.08
-17.97
-26.66
-34.82
-42.41
-49.65
-56.83
-64.26
-72.09
-80.24
-88.15
-94.77
-98.68
-98.46
-93.17
-82.81
-68.37
-51.52
-34.04
-17.31
-2.07
11.39
23.02
32.71
40.31
45.76
49.23
51.14
52.05
52.45
52.55
52.28
51.37
49.51
46.61
42.78
38.38
33.81
29.43
25.42
21.81
18.49
15.30
12.06
8.61
4.93
1.15
-2.34
-5.03
-6.47
-6.62
-6.00
-5.72
-7.13
-11.36
-18.85
-29.02
-40.40
-50.96
-58.70
-62.18
-60.73
-54.47
-44.05
-30.38
-14.56
2.16
18.30
32.40
43.27
50.42
54.17
55.46
55.44
54.92
54.21
53.21
51.69
49.58
46.99
44.10
40.96
37.56
33.88
30.10
26.61
23.77
21.65
19.86
17.67
14.31
9.43
3.33
-3.23
-9.31
-14.28
-18.09
-21.25
-24.61
-29.01
-35.00
-42.62
-51.40
-60.31
-67.96
-72.82
-73.60
-69.61
-61.02
-48.81
-34.41
-19.34
-4.81
8.44
20.01
29.71
37.40
42.98
46.49
48.21
48.60
48.20
47.48
46.73
46.09
45.49
44.84
43.99
42.84
41.39
39.75
38.10
36.56
35.03
33.18
30.48
26.52
21.20
14.84
8.07
1.48
-4.59
-10.19
-15.58
-21.14
-27.13
-33.74
-41.04
-48.99
-57.18
-64.74
-70.32
-72.41
-69.88
-62.38
-50.61
-35.98
-20.15
-4.62
9.59
21.77
31.42
38.07
41.41
41.54
39.09
35.19
31.19
28.20
26.76
26.77
27.59
28.45
28.78
28.39
27.49
26.37
25.18
23.80
21.93
19.30
15.86
11.80
7.41
2.86
-1.90
-7.14
-13.12
-19.99
-27.72
-36.04
-44.44
-52.20
-58.29
-61.58
-61.10
-56.41
-47.85
-36.48
-23.80
-11.32
-0.19
8.96
15.97
20.96
24.17
25.71
25.66
24.09
21.24
17.61
13.88
10.79
8.80
7.99
7.96
8.11
7.88
6.93
5.30
3.17
0.74
-1.86
-4.61
-7.55
-10.74
-14.25
-18.19
-22.74
-28.11
-34.35
-41.19
-47.87
-53.21
-55.74
-54.20
-47.98
-37.42
-23.82
-9.06
4.98
16.94
26.27
33.07
37.76
40.67
41.85
41.18
38.65
34.65
29.90
25.36
21.83
19.60
18.43
17.71
16.80
15.32
13.22
10.74
8.13
5.52
2.76
-0.45
-4.45
-9.49
-15.62
-22.68
-30.40
-38.32
-45.81
-52.00
-55.92
-56.67
-53.69
-47.00
-37.26
-25.65
-13.54
-2.11
7.87
16.20
22.96
28.37
32.46
35.05
35.87
34.74
31.84
27.77
23.41
19.67
17.11
15.77
15.20
14.69
13.55
11.40
8.26
4.45
0.38
-3.66
-7.67
-11.89
-16.71
-22.56
-29.67
-38.02
-47.17
-56.22
-63.87
-68.63
-69.27
-65.18
-56.58
-44.59
-30.81
-16.89
-4.11
6.85
15.79
22.82
28.12
31.80
33.94
34.64
34.11
32.68
30.79
28.94
27.55
26.88
26.86
27.18
27.29
26.70
25.10
22.45
19.02
15.22
11.42
7.75
4.12
0.14
-4.69
-10.87
-18.68
-27.92
-37.87
-47.17
-54.23
-57.48
-56.00
-49.68
-39.37
-26.57
-13.08
-0.56
9.89
17.83
23.50
27.52
30.61
33.23
35.50
37.24
38.17
38.17
37.40
36.21
35.00
34.01
33.25
32.55
31.65
30.32
28.45
26.01
22.93
19.17
14.69
9.57
4.03
-1.56
-6.89
-11.84
-16.66
-21.88
-28.06
-35.44
-43.57
-51.27
-56.86
-58.72
-55.85
-48.28
-37.07
-23.97
-10.79
1.12
11.17
19.40
26.06
31.32
35.07
37.07
37.16
35.52
32.66
29.31
26.12
23.51
21.65
20.50
19.78
19.19
18.38
17.11
15.33
13.20
11.00
8.88
6.68
4.00
0.38
-4.25
-9.50
-14.52
-18.54
-21.22
-22.96
-24.62
-27.15
-31.09
-36.48
-42.95
-49.91
-56.67
-62.39
-66.00
-66.35
-62.59
-54.56
-43.01
-29.39
-15.34
-2.20
9.29
18.97
27.00
33.52
38.55
42.03
43.94
44.43
43.84
42.64
41.30
40.24
39.69
39.74
40.28
41.08
41.91
42.52
42.70
42.29
41.18
39.28
36.57
33.08
28.87
24.03
18.62
12.75
6.64
0.60
-4.97
-9.69
-13.41
-16.30
-18.81
-21.66
-25.56
-31.00
-37.99
-45.97
-53.74
-59.76
-62.47
-60.82
-54.61
-44.61
-32.31
-19.49
-7.58
2.68
11.17
18.19
24.11
29.09
33.09
36.07
38.06
39.28
40.00
40.42
40.64
40.61
40.22
39.47
38.44
37.30
36.28
35.46
34.78
33.97
32.62
30.40
27.11
22.81
17.75
12.19
6.35
0.30
-5.87
-12.08
-18.10
-23.70
-28.73
-33.22
-37.34
-41.33
-45.46
-50.00
-55.31
-61.71
-69.28
-77.58
-85.46
-91.27
-93.30
-90.45
-82.61
-70.77
-56.58
-41.85
-27.95
-15.60
-4.92
4.30
12.44
19.77
26.37
32.17
36.92
40.28
42.01
42.04
40.57
38.06
35.18
32.55
30.65
29.66
29.48
29.71
29.87
29.39
27.87
25.06
21.00
16.02
10.63
5.43
0.89
-2.86
-6.02
-9.07
-12.49
-16.55
-21.13
-25.96
-30.70
-35.25
-39.87
-45.10
-51.56
-59.61
-69.05
-78.91
-87.63
-93.37
-94.60
-90.54
-81.48
-68.58
-53.45
-37.71
-22.56
-8.75
3.31
13.43
21.52
27.66
32.11
35.24
37.46
39.08
40.28
41.17
41.82
42.35
42.87
43.37
43.71
43.60
42.80
41.22
39.01
36.47
33.94
31.56
29.27
26.81
23.88
20.28
15.97
11.07
5.74
0.16
-5.55
-11.27
-16.94
-22.52
-28.07
-33.80
-40.06
-47.12
-54.99
-63.14
-70.44
-75.34
-76.32
-72.45
-63.65
-50.85
-35.59
-19.61
-4.40
9.11
20.55
29.94
37.47
43.27
47.38
49.81
50.74
50.59
49.96
49.44
49.28
49.36
49.20
48.28
46.30
43.36
39.89
36.47
33.57
31.35
29.61
27.81
25.23
21.21
15.46
8.18
0.07
-8.01
-15.40
-21.82
-27.52
-33.08
-39.02
-45.76
-53.27
-61.12
-68.51
-74.35
-77.48
-76.95
-72.36
-63.90
-52.37
-38.89
-24.60
-10.51
2.66
14.27
23.85
31.05
35.73
37.96
38.14
36.88
34.92
32.96
31.50
30.73
30.48
30.38
30.00
29.13
27.83
26.26
24.68
23.11
21.35
19.07
15.97
12.02
7.43
2.59
-2.17
-6.70
-11.08
-15.64
-20.79
-26.87
-34.05
-42.08
-50.31
-57.64
-62.75
-64.46
-62.04
-55.50
-45.54
-33.35
-20.21
-7.24
4.77
15.37
24.29
31.35
36.40
39.40
40.56
40.30
39.23
37.96
36.81
35.82
34.77
33.41
31.64
29.65
27.81
26.44
25.57
24.86
23.74
21.59
18.10
13.32
7.69
1.85
-3.59
-8.28
-12.28
-16.02
-20.21
-25.52
-32.36
-40.62
-49.64
-58.26
-65.10
-68.91
-68.77
-64.33
-55.82
-44.00
-30.02
-15.32
-1.32
10.85
20.48
27.45
32.10
35.04
36.85
37.95
38.53
38.59
38.13
37.17
35.85
34.34
32.82
31.46
30.37
29.52
28.70
27.60
25.81
23.10
19.44
15.00
10.08
5.01
0.04
-4.70
-9.22
-13.72
-18.57
-24.32
-31.41
-39.95
-49.40
-58.50
-65.50
-68.65
-66.84
-59.92
-48.85
-35.29
-21.09
-7.74
3.90
13.54
21.22
26.98
30.79
32.57
32.40
30.67
28.03
25.22
22.72
20.72
19.07
17.60
16.22
15.02
14.11
13.42
12.63
11.24
8.85
5.30
0.87
-3.97
-8.78
-13.42
-18.13
-23.42
-29.80
-37.37
-45.60
-53.31
-58.90
-60.86
-58.23
-51.00
-40.10
-27.09
-13.70
-1.38
9.07
17.44
23.93
28.88
32.46
34.62
35.16
33.95
31.19
27.40
23.36
19.81
17.15
15.39
14.23
13.21
12.05
10.55
8.73
6.60
4.15
1.30
-2.02
-5.92
-10.57
-16.21
-23.19
-31.63
-41.29
-51.34
-60.38
-66.75
-69.04
-66.51
-59.33
-48.61
-35.92
-22.95
-11.02
-0.97
6.81
12.25
15.38
16.39
15.58
13.48
10.76
8.08
6.00
4.83
4.59
5.06
5.84
6.41
6.36
5.40
3.51
0.91
-2.13
-5.37
-8.78
-12.51
-16.84
-21.97
-27.94
-34.54
-41.31
-47.46
-51.97
-53.72
-51.73
-45.49
-35.23
-21.87
-6.75
8.73
23.53
37.05
49.01
59.22
67.30
72.80
75.33
74.93
72.15
68.01
63.64
59.92
57.21
55.28
53.55
51.33
48.11
43.75
38.48
32.74
27.00
21.58
16.51
11.54
6.16
-0.17
-7.85
-16.93
-26.99
-37.12
-45.98
-52.10
-54.19
-51.57
-44.31
-33.36
-20.25
-6.66
5.90
16.53
24.93
31.30
36.10
39.73
42.38
44.02
44.52
43.89
42.32
40.25
38.22
36.63
35.58
34.86
34.04
32.67
30.43
27.28
23.37
18.93
14.14
9.05
3.60
-2.31
-8.77
-15.84
-23.59
-32.04
-41.05
-50.09
-58.14
-63.83
-65.84
-63.32
-56.24
-45.41
-32.18
-18.01
-4.12
8.64
19.80
29.08
36.34
41.57
44.91
46.63
47.08
46.61
45.49
43.93
42.10
40.21
38.43
36.90
35.64
34.48
33.09
31.08
28.12
24.06
19.00
13.21
7.11
1.05
-4.76
-10.29
-15.71
-21.38
-27.73
-35.22
-44.04
-53.79
-63.47
-71.46
-75.99
-75.69
-70.12
-59.97
-46.77
-32.42
-18.53
-6.08
4.67
13.91
21.93
28.85
34.50
38.57
40.84
41.40
40.68
39.38
38.28
37.84
38.15
38.91
39.58
39.73
39.19
38.07
36.58
34.83
32.68
29.78
25.84
20.82
15.05
9.17
3.77
-0.80
-4.59
-8.02
-11.61
-15.87
-21.17
-27.76
-35.75
-44.84
-54.21
-62.43
-67.80
-68.82
-64.84
-56.31
-44.58
-31.42
-18.33
-6.25
4.47
13.81
21.78
28.33
33.35
36.81
38.85
39.73
39.83
39.51
39.15
39.08
39.51
40.53
42.01
43.67
45.08
45.78
45.52
44.21
42.01
39.14
35.78
31.97
27.62
22.66
17.22
11.66
6.39
1.69
-2.43
-6.21
-9.99
-13.99
-18.34
-23.16
-28.74
-35.33
-42.92
-50.88
-57.83
-62.05
-62.04
-57.20
-48.07
-36.15
-23.28
-11.05
-0.43
8.24
15.02
20.06
23.49
25.42
26.02
25.62
24.63
23.52
22.65
22.25
22.33
22.74
23.29
23.78
24.14
24.38
24.48
24.31
23.62
22.10
19.53
15.91
11.47
6.61
1.66
-3.18
-7.94
-12.70
-17.49
-22.31
-27.04
-31.63
-36.10
-40.65
-45.57
-51.26
-58.10
-66.34
-75.84
-85.83
-94.92
-101.35
-103.53
-100.59
-92.65
-80.77
-66.53
-51.52
-36.95
-23.56
-11.79
-1.80
6.36
12.85
17.92
21.86
24.86
26.92
27.98
28.06
27.41
26.54
26.03
26.30
27.44
29.11
30.73
31.68
31.47
29.97
27.38
24.10
20.57
17.09
13.72
10.29
6.54
2.29
-2.50
-7.64
-12.92
-18.19
-23.49
-28.95
-34.78
-41.15
-48.18
-55.94
-64.41
-73.39
-82.28
-90.03
-95.23
-96.50
-92.94
-84.52
-72.09
-57.10
-41.03
-24.97
-9.45
5.28
18.95
30.97
40.54
47.01
50.28
50.99
50.30
49.41
49.03
49.18
49.34
48.92
47.69
45.90
44.07
42.56
41.32
39.88
37.67
34.38
30.09
25.23
20.21
15.20
10.01
4.33
-2.05
-9.02
-16.13
-22.83
-28.67
-33.58
-37.93
-42.30
-47.33
-53.38
-60.32
-67.43
-73.58
-77.36
-77.57
-73.46
-64.96
-52.70
-37.85
-21.78
-5.80
9.08
22.32
33.70
43.25
51.08
57.25
61.77
64.66
66.02
66.03
64.89
62.81
59.95
56.49
52.68
48.84
45.34
42.37
39.92
37.70
35.35
32.46
28.78
24.20
18.73
12.42
5.40
-2.05
-9.53
-16.62
-23.01
-28.71
-34.12
-39.94
-46.74
-54.70
-63.24
-71.09
-76.61
-78.31
-75.37
-67.81
-56.49
-42.71
-27.81
-12.93
1.06
13.53
23.96
32.04
37.72
41.26
43.24
44.26
44.76
44.88
44.49
43.38
41.45
38.88
36.06
33.45
31.36
29.78
28.40
26.69
24.14
20.49
15.87
10.65
5.34
0.27
-4.52
-9.36
-14.69
-20.94
-28.35
-36.91
-46.31
-55.93
-64.75
-71.38
-74.35
-72.53
-65.56
-54.04
-39.42
-23.55
-8.14
5.65
17.24
26.58
33.80
39.06
42.51
44.27
44.56
43.66
41.98
39.89
37.76
35.85
34.31
33.10
32.11
31.09
29.72
27.71
24.83
20.98
16.23
10.78
4.91
-1.08
-7.02
-12.84
-18.64
-24.66
-31.19
-38.51
-46.57
-54.85
-62.24
-67.17
-68.17
-64.28
-55.61
-43.27
-29.09
-14.96
-2.24
8.48
17.23
24.27
29.71
33.33
34.84
34.18
31.77
28.52
25.51
23.59
23.03
23.52
24.30
24.65
24.12
22.65
20.50
17.88
14.84
11.24
6.83
1.45
-4.93
-12.20
-20.30
-29.15
-38.62
-48.26
-57.16
-63.96
-67.19
-65.75
-59.34
-48.67
-35.21
-20.81
-7.01
5.19
15.36
23.45
29.47
33.39
35.08
34.59
32.23
28.63
24.58
20.80
17.76
15.53
13.89
12.53
11.21
9.85
8.49
7.23
6.06
4.83
3.32
1.27
-1.61
-5.67
-11.32
-18.85
-28.09
-38.17
-47.49
-54.10
-56.31
-53.27
-45.26
-33.56
-19.92
-6.04
6.83
17.93
26.93
33.72
38.31
40.87
41.73
41.33
40.19
38.74
37.30
35.97
34.73
33.42
31.86
29.86
27.30
24.15
20.44
16.29
11.79
7.01
1.93
-3.53
-9.54
-16.39
-24.34
-33.56
-43.81
-54.26
-63.43
-69.61
-71.28
-67.85
-59.76
-48.36
-35.28
-21.90
-8.93
3.41
14.97
25.38
33.90
39.74
42.47
42.29
40.07
36.98
34.15
32.28
31.52
31.55
31.79
31.68
30.85
29.18
26.79
23.93
20.87
17.75
14.53
10.90
6.37
0.41
-7.28
-16.58
-26.74
-36.47
-44.20
-48.46
-48.32
-43.66
-35.13
-23.95
-11.53
0.89
12.43
22.68
31.47
38.73
44.30
47.93
49.37
48.55
45.74
41.59
36.98
32.74
29.49
27.38
26.13
25.18
23.90
21.85
18.92
15.30
11.24
6.96
2.46
-2.48
-8.13
-14.65
-22.04
-30.14
-38.75
-47.60
-56.20
-63.70
-68.85
-70.30
-67.08
-58.98
-46.78
-32.02
-16.55
-1.94
10.85
21.50
30.22
37.23
42.67
46.43
48.35
48.46
47.06
44.80
42.38
40.36
38.93
37.91
36.93
35.64
33.89
31.62
28.79
25.27
20.86
15.47
9.29
2.76
-3.58
-9.28
-14.28
-18.88
-23.76
-29.66
-37.16
-46.30
-56.47
-66.31
-73.99
-77.71
-76.20
-69.08
-57.11
-41.88
-25.39
-9.47
4.63
16.37
25.79
33.22
39.01
43.22
45.84
46.83
46.40
45.02
43.38
42.05
41.28
40.89
40.46
39.59
38.18
36.47
34.89
33.73
32.90
31.84
29.75
25.93
20.15
12.85
4.93
-2.56
-8.85
-13.73
-17.54
-20.89
-24.50
-28.90
-34.54
-41.61
-50.02
-59.14
-67.75
-74.06
-76.24
-73.05
-64.35
-51.23
-35.66
-19.72
-5.00
7.73
18.43
27.41
34.94
41.02
45.49
48.19
49.19
48.91
47.97
47.00
46.41
46.26
46.37
46.43
46.19
45.60
44.75
43.73
42.54
41.02
38.87
35.89
32.02
27.43
22.39
17.14
11.84
6.49
1.03
-4.61
-10.38
-16.17
-21.82
-27.26
-32.58
-38.09
-44.25
-51.43
-59.66
-68.35
-76.23
-81.59
-82.80
-78.88
-69.88
-56.96
-41.94
-26.71
-12.73
-0.74
9.10
16.96
23.00
27.31
29.96
31.14
31.18
30.54
29.65
28.81
28.17
27.70
27.33
26.95
26.47
25.83
24.99
23.96
22.69
21.17
19.41
17.41
15.17
12.69
9.98
7.09
4.03
0.80
-2.68
-6.58
-10.98
-15.89
-21.09
-26.26
-31.06
-35.41
-39.54
-44.02
-49.54
-56.53
-64.83
-73.53
-81.14
-85.92
-86.47
-82.13
-73.24
-60.95
-46.86
-32.46
-18.84
-6.56
4.24
13.55
21.41
27.82
32.83
36.51
38.93
40.15
40.15
38.96
36.73
33.86
30.92
28.53
27.13
26.85
27.41
28.30
28.95
28.93
28.05
26.39
24.15
21.54
18.62
15.27
11.26
6.38
0.63
-5.72
-12.18
-18.24
-23.60
-28.20
-32.29
-36.24
-40.44
-45.24
-51.00
-57.95
-66.09
-74.94
-83.45
-90.09
-93.26
-91.80
-85.36
-74.52
-60.62
-45.26
-29.91
-15.53
-2.60
8.84
18.88
27.58
34.89
40.70
44.92
47.61
49.05
49.64
49.80
49.77
49.62
49.24
48.51
47.44
46.18
44.98
43.94
42.99
41.77
39.84
36.82
32.61
27.39
21.53
15.39
9.19
2.98
-3.33
-9.83
-16.42
-22.87
-28.86
-34.16
-38.77
-43.03
-47.45
-52.39
-57.75
-62.82
-66.40
-67.18
-64.22
-57.27
-46.80
-33.91
-19.98
-6.43
5.58
15.26
22.31
26.92
29.58
30.89
31.37
31.36
31.08
30.70
30.45
30.54
31.05
31.82
32.47
32.51
31.58
29.55
26.58
22.99
19.16
15.31
11.49
7.56
3.29
-1.48
-6.70
-12.07
-17.09
-21.34
-24.68
-27.48
-30.56
-34.87
-41.10
-49.23
-58.39
-66.99
-73.17
-75.37
-72.85
-65.79
-55.20
-42.48
-29.01
-15.87
-3.66
7.26
16.77
24.79
31.23
36.01
39.11
40.54
40.41
38.95
36.50
33.59
30.82
28.76
27.76
27.85
28.75
29.87
30.50
29.98
27.90
24.30
19.60
14.56
9.87
5.99
2.84
0.02
-3.04
-6.73
-11.26
-16.77
-23.30
-30.88
-39.25
-47.58
-54.47
-58.23
-57.47
-51.63
-41.28
-27.92
-13.45
0.37
12.42
22.28
30.00
35.89
40.19
42.97
44.12
43.57
41.35
37.84
33.65
29.53
26.12
23.72
22.25
21.27
20.14
18.34
15.57
11.87
7.58
3.13
-1.10
-5.06
-8.97
-13.28
-18.42
-24.72
-32.25
-40.81
-49.94
-58.83
-66.35
-71.17
-71.99
-68.02
-59.25
-46.63
-31.87
-16.97
-3.71
6.79
14.23
18.95
21.59
22.75
22.70
21.42
18.75
14.74
9.81
4.78
0.50
-2.49
-4.21
-5.18
-6.12
-7.54
-9.54
-11.88
-14.19
-16.31
-18.31
-20.39
-22.71
-25.21
-27.81
-30.50
-33.51
-37.11
-41.31
-45.52
-48.43
-48.39
-44.06
-34.98
-21.94
-6.70
8.64
22.37
33.58
42.13
48.27
52.18
53.78
52.87
49.45
44.00
37.58
31.45
26.68
23.76
22.41
21.75
20.75
18.71
15.47
11.37
6.98
2.70
-1.35
-5.44
-9.92
-15.09
-21.11
-28.01
-35.67
-43.71
-51.29
-57.07
-59.54
-57.45
-50.52
-39.52
-26.07
-11.99
1.38
13.34
23.77
32.58
39.55
44.16
45.96
44.91
41.55
36.81
31.77
27.24
23.60
20.83
18.59
16.45
14.17
11.65
9.00
6.40
4.01
1.84
-0.26
-2.56
-5.41
-9.20
-14.33
-21.06
-29.31
-38.41
-46.97
-53.16
-55.16
-51.82
-43.14
-30.29
-15.23
-0.07
13.56
24.81
33.57
40.24
45.25
48.90
51.24
52.21
51.84
50.29
48.03
45.62
43.65
42.46
42.03
42.03
41.92
41.25
39.78
37.58
34.95
32.12
29.19
25.92
21.91
16.68
9.94
1.58
-8.26
-19.16
-30.32
-40.52
-48.14
-51.52
-49.47
-41.77
-29.34
-14.13
1.65
16.15
28.36
38.09
45.69
51.53
55.77
58.45
59.55
59.31
58.08
56.31
54.31
52.31
50.47
48.90
47.77
47.19
47.12
47.38
47.60
47.33
46.09
43.57
39.68
34.65
28.97
23.25
17.96
13.24
8.81
4.03
-1.90
-9.51
-18.75
-28.83
-38.18
-44.89
-47.34
-44.76
-37.56
-27.19
-15.61
-4.55
4.91
12.43
18.11
22.07
24.35
24.95
24.01
21.95
19.41
16.97
15.06
13.76
12.92
12.15
11.02
9.12
6.25
2.41
-2.21
-7.40
-13.04
-19.14
-25.83
-33.14
-40.94
-48.95
-56.86
-64.42
-71.48
-77.96
-83.82
-88.98
-93.35
-96.87
-99.54
-101.45
-102.90
-104.36
-106.47
-109.63
-113.69
-117.72
-120.14
-119.15
-113.44
-102.65
-87.40
-69.05
-49.18
-29.24
-10.39
6.55
21.02
32.74
41.75
48.37
53.09
56.42
58.76
60.37
61.41
62.00
62.17
61.90
61.21
60.30
59.58
59.58
60.65
62.69
65.11
66.97
67.50
66.39
63.93
60.87
58.04
55.96
54.73
54.11
53.72
53.22
52.34
50.93
48.83
45.94
42.24
37.79
32.66
26.93
20.61
13.59
5.70
-3.26
-13.29
-24.20
-35.40
-46.19
-55.93
-64.35
-71.66
-78.22
-84.07
-88.53
-90.11
-87.22
-79.01
-66.18
-50.87
-35.91
-23.53
-14.50
-8.08
-2.85
2.30
7.50
12.16
15.66
18.05
20.17
23.11
27.56
33.35
39.62
45.21
49.15
50.85
50.05
46.84
41.70
35.59
29.77
25.39
22.91
21.82
20.84
18.46
13.74
6.63
-2.10
-11.32
-20.10
-27.97
-34.88
-41.02
-46.73
-52.55
-59.23
-67.79
-79.02
-92.93
-108.29
-122.60
-132.65
-135.56
-129.84
-115.88
-95.87
-72.86
-49.84
-28.97
-11.37
2.65
13.20
20.61
25.41
28.38
30.52
32.85
36.05
40.23
44.86
49.04
51.81
52.60
51.39
48.76
45.65
43.01
41.46
41.03
41.16
40.96
39.58
36.54
31.90
26.18
20.18
14.67
10.19
6.87
4.37
1.91
-1.55
-7.00
-14.93
-25.05
-36.10
-46.10
-52.94
-54.97
-51.53
-43.05
-30.83
-16.57
-1.95
11.70
23.45
32.77
39.49
43.65
45.60
45.80
44.84
43.19
41.23
39.16
37.12
35.24
33.65
32.43
31.51
30.62
29.38
27.40
24.54
20.87
16.70
12.40
8.18
4.07
-0.02
-4.25
-8.75
-13.65
-19.20
-25.74
-33.50
-42.35
-51.49
-59.49
-64.69
-65.68
-61.88
-53.69
-42.25
-29.02
-15.30
-2.03
10.14
20.73
29.32
35.59
39.45
41.18
41.35
40.61
39.40
37.99
36.34
34.44
32.34
30.24
28.33
26.64
24.99
23.07
20.55
17.20
12.97
7.96
2.43
-3.27
-8.83
-14.02
-18.86
-23.64
-28.92
-35.26
-43.06
-52.25
-62.18
-71.74
-79.45
-83.87
-83.91
-79.12
-69.83
-57.07
-42.34
-27.21
-12.99
-0.49
10.03
18.63
25.59
31.11
35.34
38.40
40.40
41.57
42.16
42.45
42.52
42.37
41.86
40.92
39.56
37.90
36.05
34.01
31.62
28.58
24.70
19.92
14.41
8.51
2.52
-3.33
-9.01
-14.67
-20.68
-27.52
-35.66
-45.27
-55.94
-66.51
-75.18
-80.03
-79.62
-73.63
-62.90
-49.17
-34.38
-20.05
-6.95
4.76
15.20
24.46
32.33
38.52
42.77
45.11
45.84
45.47
44.57
43.51
42.45
41.34
40.00
38.28
36.19
33.86
31.47
29.11
26.62
23.69
19.92
15.08
9.24
2.81
-3.70
-9.86
-15.46
-20.61
-25.58
-30.70
-36.33
-42.88
-50.64
-59.73
-69.68
-79.37
-87.12
-91.09
-89.93
-83.33
-72.02
-57.53
-41.59
-25.69
-10.81
2.45
13.70
22.56
28.81
32.47
33.93
33.99
33.57
33.50
34.22
35.73
37.71
39.65
41.11
41.80
41.61
40.58
38.80
36.41
33.57
30.38
26.91
23.14
19.04
14.56
9.71
4.51
-1.04
-7.02
-13.56
-20.89
-29.20
-38.55
-48.67
-58.89
-68.05
-74.68
-77.42
-75.37
-68.59
-58.06
-45.48
-32.69
-21.13
-11.56
-4.09
1.51
5.53
8.15
9.52
9.89
9.68
9.44
9.72
10.89
13.15
16.46
20.63
25.36
30.25
34.88
38.85
41.89
43.96
45.14
45.59
45.41
44.47
42.54
39.28
34.48
28.01
19.93
10.44
-0.01
-10.54
-19.83
-26.24
-28.32
-25.22
-17.16
-5.43
7.98
21.06
32.31
41.03
47.24
51.29
53.44
53.77
52.24
48.95
44.35
39.26
34.64
31.35
29.76
29.68
30.49
31.42
31.78
31.10
29.11
25.66
20.69
14.26
6.61
-1.83
-10.62
-19.49
-28.49
-38.05
-48.55
-59.99
-71.63
-81.93
-88.95
-91.03
-87.32
-78.11
-64.76
-49.07
-32.84
-17.35
-3.37
8.73
18.78
26.62
32.11
35.26
36.25
35.49
33.54
31.04
28.53
26.41
24.83
23.70
22.74
21.62
20.07
17.96
15.29
12.14
8.56
4.51
-0.23
-5.99
-13.13
-21.83
-32.01
-43.12
-54.16
-63.76
-70.39
-72.77
-70.18
-62.68
-51.16
-37.11
-22.25
-8.13
4.21
14.37
22.43
28.74
33.55
36.92
38.73
38.87
37.52
35.20
32.70
30.82
30.02
30.18
30.70
30.74
29.62
27.07
23.35
19.01
14.57
10.29
6.05
1.50
-3.77
-10.00
-17.33
-25.69
-34.86
-44.34
-53.21
-60.14
-63.61
-62.42
-56.14
-45.34
-31.54
-16.70
-2.65
9.47
19.28
27.10
33.44
38.69
42.92
45.84
47.19
46.93
45.44
43.41
41.55
40.28
39.57
39.06
38.28
36.92
34.89
32.33
29.30
25.80
21.77
17.23
12.33
7.28
2.29
-2.74
-8.11
-14.33
-21.83
-30.55
-39.78
-48.17
-53.95
-55.50
-51.93
-43.31
-30.85
-16.40
-1.94
11.09
22.03
30.95
38.22
44.16
48.72
51.61
52.57
51.69
49.54
47.03
45.06
44.16
44.32
45.04
45.66
45.63
44.74
43.09
40.94
38.50
35.84
32.89
29.46
25.37
20.47
14.72
8.19
1.11
-6.17
-13.31
-20.05
-26.34
-32.35
-38.42
-44.92
-52.19
-60.38
-69.30
-78.36
-86.48
-92.27
-94.25
-91.37
-83.32
-70.69
-54.90
-37.77
-21.07
-6.17
6.19
15.73
22.61
27.16
29.81
31.09
31.50
31.56
31.65
31.91
32.29
32.54
32.47
32.03
31.39
30.88
30.77
31.15
31.78
32.12
31.52
29.47
25.81
20.85
15.30
9.95
5.40
1.76
-1.39
-4.77
-9.05
-14.53
-21.05
-28.09
-35.04
-41.41
-46.97
-51.75
-56.07
-60.47
-65.74
-72.61
-81.45
-91.85
-102.45
-111.22
-116.01
-115.23
-108.43
-96.33
-80.53
-62.93
-45.19
-28.40
-13.10
0.58
12.60
22.98
31.63
38.52
43.71
47.42
49.90
51.40
52.07
51.98
51.21
49.96
48.54
47.26
46.31
45.61
44.84
43.59
41.55
38.65
35.07
31.12
27.08
23.19
19.50
15.90
12.17
8.00
3.05
-2.88
-9.80
-17.43
-25.27
-32.78
-39.60
-45.75
-51.71
-58.18
-65.79
-74.70
-84.29
-93.25
-99.76
-102.13
-99.34
-91.35
-79.10
-64.11
-48.03
-32.09
-17.00
-3.00
9.88
21.55
31.75
40.10
46.37
50.56
52.99
54.14
54.48
54.30
53.76
52.90
51.79
50.62
49.55
48.68
47.90
46.90
45.33
42.99
39.91
36.34
32.51
28.46
24.01
18.82
12.63
5.52
-2.08
-9.48
-16.00
-21.19
-25.05
-27.92
-30.42
-33.26
-37.00
-41.89
-47.73
-53.83
-59.07
-62.17
-62.07
-58.21
-50.71
-40.27
-27.97
-14.91
-2.02
10.04
20.82
30.01
37.39
42.86
46.57
48.89
50.32
51.33
52.16
52.73
52.67
51.59
49.27
45.81
41.63
37.34
33.48
30.34
27.87
25.69
23.29
20.17
16.09
11.13
5.65
0.11
-5.09
-9.80
-14.14
-18.44
-23.20
-28.90
-35.96
-44.45
-54.00
-63.69
-72.10
-77.67
-79.09
-75.77
-67.95
-56.64
-43.24
-29.10
-15.20
-2.12
9.86
20.55
29.70
37.05
42.45
45.96
47.86
48.59
48.54
47.98
46.95
45.35
43.11
40.27
37.11
33.97
31.18
28.83
26.74
24.57
21.89
18.43
14.11
9.12
3.80
-1.51
-6.61
-11.56
-16.63
-22.26
-28.92
-36.83
-45.83
-55.20
-63.76
-70.07
-72.86
-71.36
-65.54
-56.12
-44.31
-31.43
-18.58
-6.43
4.71
14.67
23.22
30.01
34.61
36.84
36.89
35.41
33.32
31.48
30.39
30.04
30.04
29.78
28.77
26.78
23.86
20.32
16.46
12.53
8.57
4.49
0.21
-4.20
-8.48
-12.32
-15.45
-17.90
-20.08
-22.63
-26.18
-31.03
-36.92
-43.00
-48.09
-50.95
-50.66
-46.86
-39.82
-30.37
-19.60
-8.61
1.79
11.13
19.17
25.75
30.55
33.16
33.21
30.66
26.06
20.52
15.37
11.76
10.12
10.08
10.73
11.00
10.23
8.32
5.59
2.53
-0.55
-3.58
-6.59
-9.62
-12.66
-15.77
-19.11
-23.04
-27.80
-33.25
-38.67
-42.90
-44.65
-42.93
-37.39
-28.37
-16.78
-3.79
9.39
21.69
32.28
40.57
46.22
49.12
49.41
47.35
43.34
37.95
31.76
25.46
19.67
14.75
10.85
7.82
5.46
3.52
1.88
0.44
-0.89
-2.28
-4.01
-6.42
-9.82
-14.47
-20.42
-27.53
-35.35
-43.14
-49.89
-54.52
-56.08
-53.97
-48.11
-38.93
-27.29
-14.35
-1.29
10.87
21.34
29.66
35.49
38.67
39.14
37.10
33.07
27.87
22.53
17.93
14.59
12.49
11.14
9.81
7.91
5.12
1.55
-2.40
-6.26
-9.74
-12.81
-15.74
-18.91
-22.65
-27.15
-32.40
-38.16
-43.92
-48.83
-51.79
-51.60
-47.38
-38.85
-26.55
-11.75
3.98
19.22
32.94
44.67
54.24
61.56
66.43
68.61
68.03
64.97
60.15
54.63
49.45
45.31
42.31
39.97
37.48
34.12
29.52
23.77
17.24
10.32
3.22
-4.02
-11.49
-19.29
-27.47
-36.14
-45.49
-55.62
-66.32
-76.83
-85.78
-91.51
-92.60
-88.39
-79.24
-66.42
-51.73
-36.88
-23.16
-11.27
-1.46
6.33
12.22
16.32
18.77
19.81
19.92
19.70
19.81
20.75
22.69
25.42
28.45
31.16
33.03
33.73
33.17
31.42
28.64
25.03
20.80
16.23
11.54
6.88
2.23
-2.65
-8.19
-14.86
-23.03
-32.65
-43.04
-52.81
-60.09
-63.01
-60.43
-52.32
-39.85
-25.07
-10.11
3.47
15.02
24.66
32.90
40.11
46.24
50.95
53.89
54.96
54.48
53.10
51.52
50.26
49.49
49.09
48.72
48.08
47.01
45.62
44.03
42.35
40.42
37.89
34.28
29.25
22.89
15.71
8.55
2.20
-3.03
-7.40
-11.65
-16.65
-23.00
-30.85
-39.90
-49.56
-59.06
-67.46
-73.65
-76.48
-74.99
-68.77
-58.22
-44.54
-29.35
-14.19
-0.18
12.21
22.86
31.81
39.05
44.44
47.94
49.64
49.95
49.39
48.53
47.72
47.12
46.72
46.39
46.06
45.70
45.25
44.59
43.55
41.87
39.40
36.19
32.35
28.18
23.86
19.51
15.13
10.67
6.07
1.36
-3.37
-8.01
-12.47
-16.74
-20.86
-24.95
-29.21
-33.98
-39.65
-46.55
-54.56
-62.93
-70.25
-74.77
-74.93
-69.96
-60.13
-46.64
-31.19
-15.39
-0.40
13.19
25.16
35.48
44.05
50.72
55.35
57.97
58.81
58.32
57.04
55.45
53.82
52.25
50.72
49.16
47.55
45.90
44.17
42.24
39.92
36.95
33.16
28.52
23.18
17.40
11.54
5.90
0.70
-4.06
-8.53
-13.04
-17.96
-23.57
-29.93
-36.78
-43.69
-50.10
-55.55
-59.87
-63.23
-66.15
-69.39
-73.77
-79.85
-87.60
-96.27
-104.32
-109.85
-111.13
-107.18
-98.12
-85.11
-69.90
-54.18
-39.12
-25.16
-12.27
-0.24
10.97
21.11
29.77
36.58
41.43
44.47
46.21
47.25
48.16
49.36
51.00
52.92
54.81
56.17
56.60
55.82
53.80
50.73
46.92
42.70
38.37
34.15
30.22
26.73
23.72
21.12
18.64
15.88
12.38
7.80
2.03
-4.87
-12.67
-21.01
-29.44
-37.43
-44.51
-50.39
-55.17
-59.35
-63.72
-69.09
-75.87
-83.87
-92.19
-99.45
-104.15
-105.10
-101.70
-94.00
-82.65
-68.54
-52.59
-35.65
-18.43
-1.59
14.16
28.16
39.91
49.17
56.08
60.99
64.36
66.61
68.05
68.85
69.13
68.94
68.31
67.26
65.81
64.07
62.18
60.23
58.19
55.85
52.95
49.33
45.06
40.49
36.08
32.22
28.96
26.01
22.86
18.99
14.11
8.19
1.43
-5.83
-13.16
-20.07
-26.12
-30.99
-34.73
-37.86
-41.29
-45.96
-52.42
-60.44
-68.92
-76.23
-80.69
-81.15
-77.15
-68.99
-57.39
-43.36
-27.98
-12.35
2.46
15.57
26.40
34.66
40.42
43.96
45.68
46.06
45.65
44.96
44.39
44.07
43.86
43.40
42.32
40.42
37.75
34.59
31.35
28.39
25.92
23.94
22.26
20.52
18.32
15.36
11.51
6.80
1.46
-4.27
-10.18
-16.13
-21.97
-27.53
-32.62
-37.17
-41.36
-45.69
-50.73
-56.90
-64.08
-71.47
-77.69
-81.22
-80.87
-76.23
-67.67
-56.24
-43.19
-29.73
-16.69
-4.60
6.34
16.04
24.48
31.60
37.28
41.40
43.87
44.77
44.34
43.06
41.48
40.02
38.96
38.28
37.82
37.40
36.88
36.19
35.16
33.47
30.70
26.50
20.89
14.35
7.71
1.84
-2.76
-6.20
-9.13
-12.45
-16.96
-23.06
-30.78
-39.81
-49.60
-59.39
-68.15
-74.68
-77.77
-76.56
-70.81
-61.02
-48.28
-34.04
-19.66
-6.18
5.78
15.94
24.18
30.48
34.78
37.16
37.83
37.29
36.18
35.09
34.37
33.98
33.59
32.81
31.49
29.80
28.19
27.09
26.72
26.91
27.13
26.68
24.91
21.43
16.26
9.86
2.95
-3.78
-9.99
-15.82
-21.85
-28.76
-36.87
-45.80
-54.44
-61.21
-64.61
-63.60
-57.97
-48.31
-35.79
-21.89
-8.02
4.63
15.28
23.50
29.26
32.72
34.22
34.08
32.70
30.43
27.68
24.90
22.50
20.78
19.85
19.61
19.74
19.87
19.63
18.71
16.96
14.36
10.96
6.91
2.38
-2.49
-7.62
-13.08
-19.04
-25.71
-33.25
-41.62
-50.54
-59.34
-67.04
-72.46
-74.41
-71.97
-64.83
-53.48
-39.13
-23.45
-8.07
5.85
17.75
27.57
35.40
41.16
44.52
45.14
42.89
38.04
31.35
23.82
16.59
10.68
6.93
5.80
7.35
11.11
16.16
21.35
25.50
27.69
27.40
24.49
19.12
11.66
2.50
-7.99
-19.57
-32.00
-44.97
-57.84
-69.54
-78.63
-83.57
-83.17
-76.96
-65.48
-50.09
-32.69
-15.17
0.94
14.76
25.96
34.57
40.77
44.76
46.79
47.21
46.49
45.17
43.70
42.28
40.76
38.87
36.30
32.99
29.08
24.93
20.90
17.25
14.08
11.28
8.51
5.24
0.83
-5.36
-13.65
-23.83
-34.99
-45.72
-54.45
-59.84
-61.15
-58.41
-52.16
-43.32
-32.90
-21.83
-10.94
-1.01
7.27
13.29
16.72
17.62
16.38
13.77
10.67
7.82
5.73
4.54
4.16
4.33
4.82
5.45
6.14
6.89
7.69
8.46
8.97
8.80
7.42
4.36
-0.67
-7.65
-16.18
-25.56
-34.81
-42.75
-48.15
-49.80
-46.96
-39.54
-28.31
-14.79
-0.78
12.11
22.93
31.46
37.95
42.75
45.96
47.43
46.97
44.67
41.08
37.11
33.64
31.23
29.74
28.54
26.83
24.06
20.20
15.73
11.29
7.34
3.93
0.71
-2.81
-7.09
-12.38
-18.83
-26.53
-35.38
-44.91
-54.09
-61.40
-65.12
-64.05
-57.95
-47.68
-34.86
-21.29
-8.33
3.33
13.61
22.71
30.73
37.50
42.66
45.85
47.00
46.53
45.15
43.72
42.86
42.76
43.14
43.45
43.16
41.95
39.78
36.81
33.25
29.23
24.81
20.03
15.02
9.94
4.84
-0.35
-5.97
-12.51
-20.36
-29.51
-39.31
-48.42
-55.08
-57.67
-55.19
-47.63
-35.95
-21.79
-6.96
7.01
19.14
29.05
36.83
42.76
47.09
49.97
51.43
51.50
50.41
48.64
46.79
45.43
44.89
45.04
45.42
45.43
44.59
42.73
39.93
36.37
32.16
27.27
21.66
15.43
8.85
2.37
-3.60
-8.85
-13.50
-17.89
-22.44
-27.51
-33.32
-40.04
-47.68
-56.09
-64.65
-72.21
-77.30
-78.42
-74.71
-66.22
-53.98
-39.64
-24.88
-10.97
1.53
12.50
22.05
30.12
36.50
40.91
43.29
43.90
43.35
42.38
41.63
41.35
41.49
41.74
41.86
41.79
41.65
41.67
41.90
42.13
41.86
40.54
37.78
33.58
28.31
22.63
17.20
12.50
8.62
5.29
2.07
-1.52
-5.68
-10.35
-15.22
-19.94
-24.30
-28.37
-32.48
-37.05
-42.48
-48.94
-56.27
-63.89
-70.83
-75.83
-77.60
-75.17
-68.24
-57.32
-43.61
-28.72
-14.18
-1.10
10.01
19.16
26.66
32.85
37.90
41.83
44.63
46.37
47.26
47.65
47.81
47.92
47.97
47.90
47.66
47.34
47.08
47.00
47.09
47.03
46.29
44.35
40.87
35.92
29.96
23.67
17.71
12.41
7.70
3.25
-1.31
-6.12
-10.98
-15.46
-19.19
-22.03
-24.17
-26.10
-28.40
-31.69
-36.45
-42.91
-50.86
-59.47
-67.37
-72.93
-74.68
-71.85
-64.59
-53.93
-41.39
-28.50
-16.37
-5.54
3.90
12.03
18.90
24.42
28.42
30.82
31.74
31.52
30.60
29.30
27.78
26.02
24.00
21.84
19.83
18.36
17.65
17.60
17.76
17.54
16.41
14.16
10.91
7.03
2.90
-1.22
-5.22
-9.17
-13.17
-17.35
-21.79
-26.47
-31.26
-35.93
-40.22
